-92.2702
-79.5642
-65.6082
-50.7965
-35.5847
-20.444
-5.81232
7.94949
20.5909
31.9896
42.1517
51.1961
59.325
66.7867
73.8356
80.6968
87.538
94.4533
101.459
108.498
115.457
122.179
128.488
134.201
139.144
143.159
146.114
147.898
148.426
147.632
145.461
141.87
136.82
130.273
122.194
112.557
101.353
88.6078
74.3994
58.874
42.2627
24.8886
7.16457
-10.4223
-27.3376
-43.0377
-57.0141
-68.8387
-78.2051
-84.9593
-89.1167
-90.8626
-90.5361
-88.5991
-85.5946
-82.0967
-78.6595
-75.7674
-73.7922
-72.9594
-73.327
-74.7783
-77.0297
-79.6536
-82.1154
-83.8235
-84.187
-82.678
-78.8905
-72.5917
-63.7561
-52.5811
-39.4782
-25.0418
-9.9968
4.86735
18.7712
31.0179
41.0574
48.5334
53.3096
55.4731
55.3131
53.2819
49.9394
45.892
41.7292
37.9677
35.0081
33.1059
32.3618
32.728
34.0293
35.9953
38.2989
40.5968
42.5674
43.9422
44.5295
44.2269
43.0244
40.9969
38.289
35.094
31.6295
28.1129
24.7385
21.6584
18.9701
16.7084
14.8455
13.2957
11.9261
10.5709
9.04918
7.18236
4.81256
1.81762
-1.87722
-6.29247
-11.3927
-17.0901
-23.2521
-29.7123
-36.2831
-42.7686
-48.9751
-54.72
-59.8372
-64.1804
-67.6237
-70.0626
-71.4143
-71.6197
-70.6468
-68.4951
-65.2002
-60.8374
-55.5226
-49.4095
-42.6826
-35.5458
-28.2079
-20.8676
-13.6998
-6.84599
-0.411987
5.52816
10.9206
15.7162
19.8534
23.2451
25.7726
27.2889
27.6344
26.6614
24.2666
20.4238
15.2137
8.84167
1.64216
-5.93615
-13.3618
-20.0672
-25.5038
-29.2
-30.8133
-30.1701
-27.2868
-22.3712
-15.8014
-8.08775
0.180557
8.39434
15.9839
22.4711
27.5086
30.9028
32.618
32.764
31.5688
29.342
26.4324
23.1865
19.913
16.8542
14.1705
11.935
10.1398
8.71194
7.53488
6.47434
5.40374
4.22681
2.89437
1.41291
-0.156266
-1.70795
-3.11257
-4.24202
-4.99764
-5.33594
-5.28737
-4.96442
-4.55699
-4.31483
-4.51902
-5.44627
-7.33118
-10.3317
-14.5032
-19.7849
-26.0009
-32.8757
-40.0628
-47.181
-53.8555
-59.7555
-64.6251
-68.3031
-70.7286
-71.9334
-72.0223
-71.1444
-69.4573
-67.0879
-64.0884
-60.3888
-55.7442
-49.6806
-41.4471
-29.9869
-13.9443
8.27379
38.3692
77.9534
128.288
189.987
262.731
345.02
434.042
525.685
614.714
695.146
760.763
805.735
825.283
816.271
777.671
710.813
619.384
509.151
387.457
262.521
142.642
35.3947
-53.085
-118.642
-159.415
-175.886
-170.68
-148.14
-113.747
-73.4514
-33.0113
2.60208
29.6555
45.9266
50.7799
45.0519
30.7782
10.8064
-11.6482
-33.444
-51.9009
-65.0901
-72.001
-72.5753
-67.6164
-58.598
-47.4038
-36.0389
-26.3511
-19.7969
-17.2776
-19.0611
-24.7897
-33.5673
-44.1067
-54.9133
-64.479
-71.4614
-74.8277
-73.949
-68.6388
-59.1364
-46.0429
-30.2223
-12.6826
5.54689
23.527
40.4986
55.9422
69.6041
81.4912
91.8358
101.041
109.61
118.076
126.929
136.563
147.23
159.02
171.855
185.508
199.629
213.783
227.489
240.268
251.668
261.297
268.832
274.027
276.703
276.74
274.058
268.607
260.357
249.289
235.411
218.76
199.426
177.577
153.471
127.479
100.085
71.8851
43.5601
15.8471
-10.5053
-34.7864
-56.3727
-74.7719
-89.6564
-100.882
-108.492
-112.7
-113.865
-112.451
-108.982
-103.996
-98.0061
-91.467
-84.751
-78.1406
-71.8299
-65.9378
-60.5282
-55.6334
-51.2772
-47.4939
-44.3387
-41.8894
-40.2383
-39.475
-39.6635
-40.8177
-42.8777
-45.6936
-49.019
-52.516
-55.7753
-58.3465
-59.7791
-59.668
-57.6982
-53.6837
-47.5942
-39.5672
-29.9016
-19.0344
-7.50136
4.11308
15.2334
25.3527
34.0899
41.2443
46.8432
51.1827
54.86
58.7892
64.1957
72.5765
85.6184
105.065
132.532
169.29
216.01
272.538
337.701
409.204
483.639
556.643
623.185
677.999
716.084
733.252
726.633
695.067
639.346
562.235
468.284
363.432
254.45
148.291
51.4177
-30.8074
-94.5992
-138.044
-161.179
-165.861
-155.438
-134.289
-107.274
-79.1724
-54.1838
-35.5245
-25.1785
-23.8115
-30.8445
-44.6669
-62.9491
-83.0087
-102.181
-118.146
-129.184
-134.322
-133.377
-126.897
-116.01
-102.224
-87.1916
-72.4884
-59.4185
-48.878
-41.2839
-36.5721
-34.2571
-33.5404
-33.4472
-32.9722
-31.2131
-27.4774
-21.3499
-12.7167
-1.74848
11.1519
25.4251
40.4419
55.5874
70.3329
84.2854
97.2132
109.047
119.862
129.844
139.249
148.367
157.482
166.844
176.645
187.004
197.949
209.411
221.213
233.063
244.556
255.169
264.283
271.2
275.191
275.549
271.662
263.08
249.591
231.273
208.524
182.06
152.877
122.182
91.2903
61.5176
34.0619
9.90145
-10.2836
-26.156
-37.7283
-45.3335
-49.563
-51.1836
-51.0415
-49.9672
-48.6922
-47.7837
-47.6052
-48.3042
-49.8251
-51.9443
-54.3213
-56.5574
-58.256
-59.0763
-58.7751
-57.2334
-54.4654
-50.6099
-45.9087
-40.6727
-35.2435
-29.9538
-25.0922
-20.8761
-17.4352
-14.8075
-12.9461
-11.7353
-11.0137
-10.6004
-10.3198
-10.0233
-9.60475
-9.0083
-8.22817
-7.30182
-6.29765
-5.29957
-4.39106
-3.64094
-3.09282
-2.75941
-2.62217
-2.63578
-2.73651
-2.85278
-2.91629
-2.87195
-2.68526
-2.3463
-1.86989
-1.29228
-0.665026
-0.0471004
0.503519
0.937611
1.22084
1.33756
1.29203
1.10706
0.820584
0.480642
0.139647
-0.151507
-0.348838
-0.419701
-0.345939
-0.125496
0.227607
0.684974
1.20709
1.7479
2.26028
2.70193
3.04095
3.26047
3.36155
3.3639
3.30383
3.22975
3.19528
3.25116
3.43676
3.77281
4.25642
4.85938
5.53021
6.19979
6.78986
7.22317
7.43377
7.37594
7.03058
6.40815
5.54796
4.51431
3.39013
2.26942
1.24969
0.425199
-0.118179
-0.306516
-0.0799877
0.60572
1.77806
3.44574
5.5959
8.19048
11.1623
14.412
17.8061
21.1794
24.3406
27.083
29.1997
30.5028
30.8425
30.1267
28.3351
25.5266
21.8385
17.4754
12.6905
7.75985
2.95436
-1.48813
-5.38565
-8.6277
-11.1813
-13.0877
-14.45
-15.4142
-16.1473
-16.8138
-17.555
-18.4725
-19.6182
-20.9899
-22.5343
-24.1543
-25.7217
-27.0914
-28.1176
-28.6695
-28.6446
-27.9808
-26.6631
-24.7269
-22.2564
-19.378
-16.2496
-13.0468
-9.94668
-7.11187
-4.6758
-2.73119
-1.32328
-0.448489
-0.0586744
-0.070427
-0.377979
-0.867972
-1.43403
-1.98915
-2.47445
-2.86318
-3.15998
-3.39566
-3.61876
-3.88503
-4.24648
-4.74117
-5.38513
-6.16723
-7.04774
-7.96092
-8.82135
-9.53358
-10.0037
-10.1518
-9.92258
-9.2946
-8.2842
-6.94548
-5.36492
-3.65165
-1.92436
-0.296665
1.13714
2.31389
3.20919
3.84002
4.26166
4.55964
4.83778
5.20392
5.75559
6.56727
7.68112
9.10225
10.7987
12.7061
14.7353
16.783
18.7416
20.5094
21.9981
23.1382
23.8815
24.2012
24.0906
23.56
22.6336
21.3459
19.7388
17.8581
15.7512
13.4648
11.0432
8.5283
5.96007
3.37881
0.828117
-1.64179
-3.97131
-6.0903
-7.91911
-9.37271
-10.3676
-10.8315
-10.7143
-10.0005
-8.71887
-6.95111
-4.83451
-2.55796
-0.347342
1.56342
2.98025
3.81895
4.19769
4.5457
5.71366
9.06095
16.4871
30.372
53.3963
88.2298
137.103
201.311
280.719
373.377
475.322
580.653
681.911
770.741
838.78
878.642
884.873
854.728
788.652
690.383
566.657
426.54
280.486
139.226
12.6518
-91.1877
-166.837
-211.861
-226.915
-215.449
-183.134
-137.067
-84.8841
-33.8806
9.74522
41.459
58.7098
60.9888
49.6446
27.5005
-1.66088
-33.6702
-64.5263
-90.8671
-110.308
-121.618
-124.737
-120.634
-111.059
-98.2182
-84.4287
-71.796
-61.954
-55.8942
-53.8964
-55.5602
-59.922
-65.6347
-71.18
-75.0827
-76.0993
-73.3596
-66.446
-55.4081
-40.7158
-23.164
-3.74606
16.4841
36.5407
55.6108
73.1222
88.7709
102.509
114.498
125.042
134.512
143.265
151.586
159.645
167.482
175.011
182.05
188.364
193.711
197.893
200.787
202.376
202.747
202.084
200.635
198.674
196.45
194.142
191.82
189.412
186.705
183.349
178.9
172.87
164.8
154.331
141.278
125.679
107.828
88.2731
67.7852
47.292
27.7931
10.2597
-4.46457
-15.751
-23.25
-26.9241
-27.0456
-24.1602
-19.0219
-12.5079
-5.52322
1.09175
6.64103
10.6314
12.8034
13.1336
11.8088
9.1773
5.68426
1.80024
-2.04871
-5.54007
-8.49644
-10.9046
-12.9106
-14.7915
-16.9087
-19.6489
-23.3618
-28.3014
-34.581
-42.1459
-50.768
-60.0621
-69.5223
-78.5728
-86.6272
-93.1486
-97.7045
-100.009
-99.9507
-97.5956
-93.18
-87.0796
-79.7683
-71.7693
-63.6036
-55.743
-48.5708
-42.3561
-37.2408
-33.242
-30.2666
-28.1363
-26.6185
-25.4598
-24.4176
-23.287
-21.9194
-20.2337
-18.2172
-15.9193
-13.4381
-10.9028
-8.45396
-6.22499
-4.32549
-2.82948
-1.76877
-1.13206
-0.86936
-0.900668
-1.12759
-1.44614
-1.7592
-1.98691
-2.07416
-1.99431
-1.74906
-1.36499
-0.887197
-0.371445
0.124342
0.547942
0.859204
1.03426
1.06726
0.969649
0.767341
0.496278
0.197141
-0.0900985
-0.331059
-0.500692
-0.585519
-0.584188
-0.506441
-0.370765
-0.201146
-0.0234426
0.138133
0.263962
0.34109
0.364218
0.335613
0.26405
0.163018
0.0485043
-0.0633242
-0.158222
-0.225509
-0.259086
-0.257765
-0.224931
-0.167652
-0.0954139
-0.018671
0.0525792
0.110018
0.147888
0.163465
0.157094
0.131832
0.0927904
0.0462774
-0.00111432
-0.0433662
-0.0757239
-0.0951385
-0.100394
-0.0918797
-0.0709949
-0.0392399
0.00289068
0.0570186
0.127779
0.223309
0.355182
0.537757
0.786961
1.11863
1.54659
2.0808
2.72574
3.47947
4.33343
5.27316
6.27976
7.33205
8.40912
9.49309
10.5719
11.6416
12.7087
13.7911
14.9176
16.127
17.4638
18.9736
20.6949
22.6507
24.839
27.2231
29.7251
32.2224
34.5501
36.5097
37.8838
38.4562
38.0357
36.4793
33.7138
29.7505
24.6931
18.7355
12.1518
5.2771
-1.51661
-7.84872
-13.3588
-17.7337
-20.7315
-22.1996
-22.0872
-20.4506
-17.4521
-13.3515
-8.49026
-3.26772
1.89247
6.58734
10.4939
13.4443
15.5169
17.1378
19.1798
23.0394
30.6621
44.4828
67.2563
101.76
150.382
214.632
294.644
388.762
493.31
602.604
709.282
804.918
880.872
929.278
944.028
921.602
861.643
767.153
644.304
501.856
350.267
200.604
63.3912
-52.4555
-140.485
-197.257
-222.526
-219.061
-192.128
-148.735
-96.7303
-43.8755
2.99896
38.6554
59.8697
65.578
56.7572
36.0748
7.37415
-24.9295
-56.4596
-83.4193
-103.005
-113.653
-115.103
-108.293
-95.1134
-78.0597
-59.8486
-43.0396
-29.7157
-21.2558
-18.2201
-20.352
-26.6858
-35.7358
-45.7354
-54.8914
-61.6182
-64.7255
-63.5383
-57.9406
-48.3445
-35.5945
-20.8258
-5.29761
9.77338
23.3608
34.7388
43.5452
49.7939
53.8393
56.3031
57.9738
59.6967
62.2666
66.3371
72.3548
80.5233
90.7989
102.913
116.419
130.752
145.296
159.447
172.676
184.561
194.812
203.27
209.88
214.663
217.661
218.893
218.317
215.808
211.156
204.098
194.362
181.736
166.138
147.684
126.726
103.872
79.9662
56.0246
33.1525
12.4321
-5.1919
-19.0187
-28.6722
-34.1454
-35.8024
-34.3354
-30.6845
-25.9299
-21.17
-17.4021
-15.4203
-15.7413
-18.5669
-23.7849
-31.006
-39.6292
-48.9269
-58.1364
-66.5485
-73.5814
-78.8334
-82.1108
-83.4274
-82.9807
-81.1072
-78.226
-74.7758
-71.1563
-67.6796
-64.5371
-61.7855
-59.3525
-57.0598
-54.6594
-51.8789
-48.4672
-44.2373
-39.098
-33.073
-26.3044
-19.0405
-11.6108
-4.39142
2.23484
7.91978
12.3886
15.4765
17.1637
17.6131
17.214
16.6307
16.8523
19.2277
25.4636
37.561
57.6644
87.8153
129.618
183.855
250.11
326.478
409.428
493.897
573.62
641.698
691.341
716.681
713.559
680.149
617.331
528.739
420.472
300.501
177.83
61.5412
-40.1698
-120.841
-176.366
-205.324
-208.993
-191.04
-156.967
-113.372
-67.1355
-24.6314
8.9394
30.0288
36.987
30.0637
11.1871
-16.436
-48.8326
-81.8188
-111.526
-134.84
-149.704
-155.273
-151.902
-140.998
-124.758
-105.835
-86.9837
-70.7167
-59.0253
-53.1779
-53.6196
-59.9736
-71.133
-85.4252
-100.823
-115.176
-126.428
-132.813
-133
-126.182
-112.11
-91.0735
-63.8326
-31.5222
4.46897
42.6266
81.4357
119.493
155.599
188.825
218.551
244.469
266.567
285.079
300.421
313.112
323.696
332.664
340.39
347.091
352.799
357.369
360.499
361.778
360.741
356.928
349.949
339.526
325.537
308.033
287.24
263.55
237.493
209.712
180.916
151.853
123.264
95.8555
70.2623
47.0239
26.5616
9.16173
-5.03433
-16.0329
-23.9826
-29.1609
-31.9524
-32.8205
-32.2731
-30.8266
-28.9697
-27.1304
-25.6496
-24.7639
-24.5971
-25.164
-26.3827
-28.0959
-30.0974
-32.1598
-34.063
-35.6163
-36.6758
-37.1534
-37.018
-36.29
-35.0311
-33.3307
-31.2919
-29.0183
-26.6041
-24.1271
-21.6461
-19.2008
-16.8157
-14.5043
-12.2751
-10.136
-8.0987
-6.17983
-4.40167
-2.79026
-1.37251
-0.172603
0.791603
1.51164
1.99039
2.24277
2.29515
2.18356
1.95115
1.64512
1.31347
1.00194
0.751261
0.594992
0.558044
0.655954
0.894925
1.27264
1.77974
2.40196
3.12262
3.92538
4.79675
5.72821
6.71732
7.76778
8.88804
10.0886
11.3785
12.7604
14.2266
15.7549
17.3061
18.8237
20.2352
21.4567
22.3989
22.9746
23.1073
22.7389
21.836
20.3945
18.4417
16.0358
13.263
10.2329
7.07248
3.91836
0.909408
-1.82155
-4.15545
-5.99409
-7.26595
-7.93033
-7.9794
-7.43802
-6.3612
-4.8296
-2.94335
-0.815026
1.43774
3.69919
5.86137
7.82877
9.52141
10.8766
11.8496
12.4139
12.5604
12.2977
11.6514
10.6635
9.39143
7.90617
6.28902
4.62754
3.01025
1.52063
0.231068
-0.802689
-1.5458
-1.98679
-2.13787
-2.03291
-1.7234
-1.27271
-0.749409
-0.220377
0.255529
0.632535
0.881182
0.989376
0.961107
0.812937
0.568626
0.252539
-0.117346
-0.53584
-1.0155
-1.58943
-2.31166
-3.25518
-4.50811
-6.16867
-8.33987
-11.1244
-14.6202
-18.9172
-24.0936
-30.2131
-37.3199
-45.4337
-54.5422
-64.5926
-75.4844
-87.0637
-99.1204
-111.393
-123.576
-135.34
-146.348
-156.281
-164.865
-171.888
-177.222
-180.827
-182.75
-183.121
-182.129
-180.001
-176.971
-173.257
-169.031
-164.406
-159.425
-154.06
-148.23
-141.819
-134.703
-126.781
-118.002
-108.383
-98.025
-87.1052
-75.8704
-64.614
-53.6491
-43.2796
-33.773
-25.3381
-18.1104
-12.1457
-7.42225
-3.84999
-1.28528
0.451171
1.55545
2.22256
2.63118
2.93227
3.24177
3.63778
4.16151
4.82159
5.60084
6.46449
7.36901
8.27051
9.13163
9.92624
10.6412
11.2754
11.8351
12.3287
12.7598
13.1209
13.3892
13.5254
13.4759
13.1779
12.5682
11.5928
10.2174
8.43632
6.27866
3.81152
1.13843
-1.60619
-4.26609
-6.67504
-8.67002
-10.1049
-10.8637
-10.8726
-10.1105
-8.6177
-6.50002
-3.92864
-1.13057
1.63282
4.10433
6.09024
7.54272
8.66223
10.01
12.6112
18.0197
28.3112
45.9725
73.6647
113.861
168.389
237.936
321.602
416.59
518.135
619.701
713.485
791.179
844.89
868.118
856.633
809.125
727.525
616.937
485.187
342.031
198.13
63.9308
-51.4206
-140.984
-200.646
-229.4
-229.252
-204.794
-162.516
-109.949
-54.7587
-3.89833
37.0804
64.4922
76.7215
74.1656
58.9465
34.4512
4.7698
-25.8878
-53.7266
-75.7906
-90.2371
-96.4426
-94.9443
-87.2408
-75.4896
-62.1502
-49.6212
-39.9182
-34.4302
-33.7777
-37.7838
-45.5519
-55.6314
-66.2439
-75.5347
-81.8163
-83.7715
-80.5956
-72.0627
-58.5149
-40.7829
-20.0529
2.29681
24.8681
46.4004
65.8961
82.7009
96.5354
107.479
115.912
122.433
127.758
132.621
137.685
143.468
150.302
158.313
167.423
177.383
187.815
198.261
208.243
217.309
225.082
231.282
235.744
238.412
239.324
238.579
236.306
232.619
227.594
221.243
213.517
204.312
193.5
180.966
166.651
150.596
132.968
114.084
94.4014
74.5015
55.0417
36.7009
20.1143
5.80874
-5.85114
-14.7015
-20.7947
-24.3908
-25.9256
-25.9593
-25.1125
-23.9978
-23.1548
-22.9971
-23.7768
-25.5699
-28.2837
-31.6829
-35.4319
-39.1449
-42.4392
-44.9833
-46.5351
-46.9669
-46.2734
-44.5654
-42.0494
-38.998
-35.7148
-32.4995
-29.6157
-27.2671
-25.5815
-24.6059
-24.3099
-24.5969
-25.3216
-26.3087
-27.3734
-28.3388
-29.0512
-29.3901
-29.2742
-28.6628
-27.5546
-25.9824
-24.0071
-21.7096
-19.1827
-16.5236
-13.8251
-11.1696
-8.62296
-6.22982
-4.01117
-1.96355
-0.0607492
1.74206
3.50183
5.27912
7.12837
9.08791
11.1711
13.3598
15.6016
17.811
19.8759
21.6672
23.0532
23.9135
24.1547
23.7223
22.6092
20.8591
18.5638
15.855
12.8915
9.8434
6.87516
4.12966
1.71576
-0.299603
-1.89361
-3.08416
-3.92144
-4.47615
-4.82605
-5.043
-5.18228
-5.27559
-5.32851
-5.3223
-5.21952
-4.9721
-4.53081
-3.85442
-2.91775
-1.71772
-0.276801
1.35605
3.10715
4.88227
6.57283
8.0637
9.24214
10.007
10.2781
10.0036
9.16701
7.79036
5.93509
3.69918
1.21105
-1.37968
-3.91357
-6.23392
-8.19931
-9.69477
-10.6405
-10.9977
-10.7704
-10.0047
-8.78524
-7.22934
-5.48028
-3.69915
-2.05558
-0.716706
0.165884
0.471035
0.123905
-0.889043
-2.50843
-4.59644
-6.93964
-9.26145
-11.2441
-12.5584
-12.8978
-12.0128
-9.74203
-6.03372
-0.957124
5.2997
12.4446
20.107
27.8714
35.3141
42.0407
47.7176
52.0973
55.0333
56.485
56.5126
55.2629
52.9486
49.8233
46.1547
42.1998
38.1823
34.2763
30.596
27.1923
24.0571
21.1324
18.3248
15.5226
12.6136
9.5024
6.12428
2.45593
-1.47952
-5.61288
-9.8347
-14.0062
-17.9741
-21.5873
-24.7147
-27.2605
-29.1766
-30.469
-31.198
-31.4715
-31.4318
-31.2381
-31.0468
-30.9923
-31.1711
-31.6325
-32.3763
-33.3579
-34.4974
-35.6905
-36.8114
-37.703
-38.1457
-37.8011
-36.1349
-32.3279
-25.1991
-13.1679
5.7108
33.6118
72.692
124.738
190.747
270.496
362.185
462.24
565.329
664.649
752.479
820.94
862.883
872.783
847.507
786.841
693.696
573.935
435.856
289.364
144.966
12.6851
-98.9486
-183.715
-238.24
-262.187
-258.106
-230.961
-187.428
-135.04
-81.3063
-32.9042
4.96702
29.0053
37.9668
32.5738
15.2015
-10.5971
-40.6574
-70.7824
-97.2641
-117.289
-129.188
-132.523
-127.997
-117.243
-102.504
-86.27
-70.9192
-58.4082
-50.0461
-46.3763
-47.1698
-51.5226
-58.0322
-65.0258
-70.8013
-73.8521
-73.0445
-67.7319
-57.7962
-43.6193
-25.9961
-6.00596
15.1365
36.2311
56.2232
74.3044
89.973
103.053
113.677
122.23
129.285
135.513
141.601
148.18
155.763
164.706
175.19
187.217
200.632
215.141
230.355
245.821
261.062
275.606
289.017
300.904
310.931
318.816
324.314
327.204
327.273
324.301
318.059
308.313
294.851
277.514
256.248
231.149
202.514
170.869
136.984
101.85
66.6311
32.5922
0.99833
-26.9914
-50.4283
-68.6627
-81.4062
-88.7578
-91.1905
-89.5007
-84.7237
-78.0282
-70.5995
-63.5264
-57.7033
-53.7589
-52.0166
-52.4903
-54.9138
-58.7974
-63.5048
-68.3398
-72.631
-75.8076
-77.4563
-77.3554
-75.4837
-72.0061
-67.2381
-61.5968
-55.5438
-49.528
-43.9356
-39.0514
-35.0362
-31.9213
-29.6191
-27.9476
-26.6645
-25.5056
-24.2223
-22.6139
-20.5502
-17.9825
-14.9427
-11.529
-7.88203
-4.14987
-0.444378
3.21179
6.94666
11.1067
16.325
23.577
34.2081
49.9069
72.6058
104.29
146.716
201.064
267.558
345.136
431.22
521.672
610.966
692.601
759.702
805.771
825.46
815.278
774.123
703.546
607.713
493.056
367.648
240.39
120.098
14.6134
-69.9536
-129.774
-163.566
-172.576
-160.275
-131.827
-93.4134
-51.4853
-12.0469
19.9513
41.0498
49.5072
45.311
29.9873
6.25184
-22.4431
-52.4012
-80.1513
-102.84
-118.507
-126.224
-126.088
-119.098
-106.924
-91.6266
-75.3511
-60.0494
-47.2526
-37.9211
-32.3832
-30.3596
-31.0629
-33.3506
-35.9082
-37.4344
-36.8044
-33.1933
-26.1467
-15.596
-1.82286
14.6172
32.9953
52.5187
72.4328
92.1025
111.064
129.044
145.948
161.823
176.803
191.047
204.686
217.779
230.282
242.046
252.826
262.311
270.151
276.005
279.571
280.614
278.985
274.634
267.597
257.995
246.015
231.89
215.885
198.282
179.37
159.441
138.792
117.727
96.5648
75.6405
55.3051
35.9198
17.842
1.40682
-13.0965
-25.4485
-35.5214
-43.2948
-48.8632
-52.4319
-54.3027
-54.8496
-54.4862
-53.6296
-52.6643
-51.9093
-51.5927
-51.8375
-52.6573
-53.9645
-55.5881
-57.2999
-58.8444
-59.9696
-60.4556
-60.136
-58.912
-56.7568
-53.7112
-49.8728
-45.3804
-40.3983
-35.1022
-29.6697
-24.2749
-19.0872
-14.272
-9.99027
-6.39554
-3.62553
-1.78984
-0.954417
-1.1261
-2.24056
-4.1572
-6.66323
-9.48796
-12.3262
-14.8686
-16.8341
-18.0011
-18.2322
-17.489
-15.8356
-13.4294
-10.5009
-7.32561
-4.19139
-1.36566
0.933509
2.55884
3.44574
3.6136
3.15702
2.2288
1.01722
-0.279019
-1.47498
-2.41995
-3.01186
-3.20453
-3.00736
-2.47836
-1.71185
-0.822931
0.0690588
0.855885
1.45288
1.80718
1.90117
1.75117
1.40198
0.918425
0.375223
-0.153408
-0.602976
-0.925784
-1.09509
-1.10605
-0.973615
-0.727771
-0.406971
-0.0508032
0.307019
0.644298
0.953782
1.24392
1.53675
1.86313
2.25588
2.74151
3.33187
4.01699
4.76044
5.49864
6.14475
6.59745
6.75386
6.52537
5.85411
4.72765
3.18931
1.34181
-0.65733
-2.60902
-4.29349
-5.49654
-6.03784
-5.79706
-4.73404
-2.89953
-0.43447
2.44265
5.45927
8.32007
10.7425
12.4914
13.4089
13.4352
12.6171
11.104
9.13143
6.99362
5.00883
3.48159
2.66609
2.73509
3.7582
5.692
8.38331
11.5852
14.9841
18.2341
20.9949
22.9688
23.9317
23.7557
22.4194
20.0065
16.693
12.7243
8.38615
3.9736
-0.240005
-4.02854
-7.23169
-9.76461
-11.6183
-12.8513
-13.5751
-13.9339
-14.084
-14.1729
-14.3218
-14.6132
-15.0836
-15.7232
-16.4804
-17.2719
-17.9953
-18.5439
-18.8209
-18.7513
-18.2916
-17.4341
-16.2074
-14.6724
-12.9143
-11.0332
-9.13223
-7.30756
-5.63895
-4.1832
-2.97045
-2.00361
-1.26073
-0.699722
-0.264844
0.105915
0.473492
0.891239
1.39993
2.02476
2.77441
3.64212
4.60837
5.64454
6.71714
7.79188
8.83728
9.82744
10.7439
11.5765
12.3232
12.9897
13.5881
14.1352
14.6513
15.1584
15.6787
16.2334
16.8406
17.5138
18.2599
19.0774
19.9543
20.8665
21.7777
22.6391
23.3921
23.9709
24.3078
24.339
24.0108
23.2862
22.1491
20.608
18.6962
16.4698
14.0029
11.3806
8.69179
6.0204
3.43902
1.00349
-1.24987
-3.30457
-5.16223
-6.83934
-8.36326
-9.76802
-11.0899
-12.3613
-13.6015
-14.7994
-15.8862
-16.6919
-16.8872
-15.9124
-12.9036
-6.63616
4.49241
22.4091
49.2201
86.9611
137.254
200.907
277.512
365.132
460.129
557.226
649.813
730.499
791.857
827.272
831.776
802.759
740.43
647.973
531.34
398.718
259.717
124.388
2.18806
-98.9747
-173.501
-218.582
-234.347
-223.679
-191.733
-145.227
-91.6058
-38.1839
8.63708
43.9789
64.8756
70.4071
61.5856
41.0273
12.4694
-19.7962
-51.4979
-78.8957
-99.1755
-110.688
-113.023
-106.917
-94.0412
-76.6846
-57.4036
-38.672
-22.58
-10.6137
-3.53293
-1.3538
-3.42628
-8.58749
-15.3638
-22.1916
-27.6269
-30.5191
-30.1305
-26.1917
-18.8931
-8.81775
3.16807
16.0505
28.8101
40.5514
50.6065
58.6008
64.4784
68.4852
71.118
73.0458
75.0159
77.7562
81.8851
87.8387
95.8226
105.792
117.463
130.346
143.805
157.124
169.586
180.537
189.441
195.921
199.77
200.939
199.517
195.682
189.657
181.67
171.919
160.56
147.717
133.5
118.045
101.548
84.2982
66.6934
49.2371
32.5126
17.1382
3.70761
-7.27475
-15.4552
-20.6786
-23.0162
-22.767
-20.4335
-16.6722
-12.2272
-7.85207
-4.23245
-1.91714
-1.26625
-2.42221
-5.30635
-9.64047
-14.9899
-20.8219
-26.572
-31.7097
-35.7964
-38.5294
-39.7668
-39.5335
-38.0067
-35.4866
-32.3541
-29.0234
-25.8941
-23.3089
-21.5209
-20.6741
-20.798
-21.8158
-23.5644
-25.8218
-28.3386
-30.8685
-33.193
-35.1392
-36.5875
-37.4706
-37.7656
-37.4809
-36.6421
-35.2796
-33.4197
-31.0812
-28.2769
-25.02
-21.3333
-17.2587
-12.8654
-8.25529
-3.56265
1.05035
5.40359
9.31266
12.6048
15.135
16.8003
17.5504
17.393
16.393
14.6665
12.3685
9.67781
6.77977
3.84915
1.03563
-1.54677
-3.82495
-5.76662
-7.37505
-8.67984
-9.72539
-10.5589
-11.2198
-11.7321
-12.1008
-12.3127
-12.341
-12.1534
-11.721
-11.0276
-10.0765
-8.89489
-7.53369
-6.06395
-4.56986
-3.13964
-1.85576
-0.785809
0.0245906
0.555939
0.815708
0.835876
0.66768
0.374428
0.0234169
-0.321957
-0.608938
-0.800252
-0.876617
-0.836842
-0.695715
-0.480168
-0.224377
0.0355032
0.266254
0.441599
0.544881
0.570226
0.522198
0.414167
0.265716
0.0995275
-0.0617957
-0.198579
-0.296252
-0.346662
-0.348428
-0.30642
-0.230492
-0.133721
-0.0304323
0.0657365
0.143475
0.194978
0.216556
0.208667
0.175424
0.123697
0.0619863
-0.000751371
-0.0561298
-0.0970519
-0.118016
-0.114978
-0.0848238
-0.0245415
0.0697356
0.203694
0.385689
0.627396
0.944213
1.35533
1.88336
2.5533
3.39075
4.41928
5.6569
7.11204
8.77932
10.6358
12.6384
14.7228
16.8048
18.7844
20.5521
21.9979
23.022
23.5461
23.5237
22.9487
21.8595
20.3386
18.5063
16.5091
14.5036
12.6385
11.0367
9.78033
8.90104
8.37723
8.13837
8.07616
8.06047
7.958
7.65064
7.05114
6.11386
4.83941
3.27283
1.49598
-0.384545
-2.25208
-3.99506
-5.52088
-6.76687
-7.70745
-8.3566
-8.76532
-9.01285
-9.19019
-9.37346
-9.58434
-9.73574
-9.56307
-8.54586
-5.83097
-0.175199
10.0684
26.8944
52.4972
89.0209
138.218
201.046
277.275
365.157
461.259
560.513
656.505
742.016
809.74
853.095
867.026
848.663
797.758
716.819
610.933
487.282
354.439
221.506
97.2212
-10.8646
-97.0549
-157.942
-192.579
-202.378
-190.775
-162.705
-123.968
-80.5571
-38.0326
-1.00809
27.2105
44.8015
51.4206
48.0301
36.6002
19.7315
0.252273
-19.1608
-36.2931
-49.6046
-58.3294
-62.4617
-62.6437
-59.9824
-55.8252
-51.5326
-48.2755
-46.8847
-47.7653
-50.8807
-55.8008
-61.8005
-67.9888
-73.4479
-77.3608
-79.1123
-78.3507
-75.0049
-69.2605
-61.5012
-52.2274
-41.9686
-31.2012
-20.2876
-9.44012
1.28252
11.9531
22.7323
33.8144
45.3729
57.5165
70.2605
83.5193
97.1182
110.821
124.366
137.504
150.035
161.822
172.803
182.982
192.401
201.117
209.163
216.514
223.071
228.641
232.941
235.616
236.257
234.444
229.785
221.951
210.724
196.015
177.896
156.599
132.517
106.187
78.2695
49.5154
20.7293
-7.2681
-33.6793
-57.7662
-78.8827
-96.5018
-110.236
-119.854
-125.287
-126.633
-124.154
-118.271
-109.544
-98.6527
-86.3689
-73.52
-60.9466
-49.4561
-39.7736
-32.4942
-28.0406
-26.6317
-28.2642
-32.7118
-39.5427
-48.1545
-57.8234
-67.7648
-77.197
-85.4044
-91.7918
-95.9263
-97.5631
-96.6521
-93.3278
-87.884
-80.7355
-72.3739
-63.3208
-54.0825
-45.1121
-36.7799
-29.3543
-22.995
-17.7558
-13.5963
-10.3991
-7.98869
-6.14609
-4.61331
-3.08183
-1.16038
1.67824
6.16464
13.3001
24.4006
41.0883
65.204
98.6206
142.958
199.22
267.412
346.198
432.686
522.405
609.527
687.326
748.849
787.705
798.877
779.421
728.956
649.862
547.138
427.944
300.871
175.048
59.1817
-39.3299
-115.11
-165.259
-189.509
-190.064
-171.181
-138.539
-98.4962
-57.3314
-20.563
7.58387
24.5069
29.3329
22.809
7.01303
-15.0635
-39.9963
-64.4066
-85.3785
-100.77
-109.389
-111.031
-106.387
-96.8408
-84.2123
-70.4614
-57.415
-46.5383
-38.7784
-34.4927
-33.4617
-34.9749
-37.9721
-41.2161
-43.4704
-43.6599
-40.9962
-35.0533
-25.7911
-13.5278
1.13016
17.3875
34.3737
51.2547
67.3302
82.1043
95.3247
106.988
117.314
126.696
135.629
144.639
154.204
164.696
176.327
189.122
202.908
217.328
231.862
245.869
258.632
269.41
277.492
282.248
283.178
279.947
272.415
260.65
244.922
225.69
203.573
179.305
153.693
127.562
101.712
76.8709
53.6563
32.5525
13.8928
-2.14356
-15.525
-26.351
-34.8283
-41.2413
-45.9203
-49.2089
-51.4343
-52.8825
-53.7798
-54.2838
-54.4821
-54.4
-54.0139
-53.2704
-52.1063
-50.4679
-48.3268
-45.6908
-42.6082
-39.1661
-35.4826
-31.6948
-27.9439
-24.3596
-21.0464
-18.0724
-15.4638
-13.2034
-11.2358
-9.47633
-7.8238
-6.17497
-4.43874
-2.54837
-0.470335
1.79137
4.19566
6.66944
9.11642
11.4284
13.4976
15.2283
16.5463
17.4056
17.7909
17.7159
17.2193
16.3569
15.194
13.7969
12.2268
10.5362
8.76727
6.95464
5.12866
3.32039
1.56598
-0.0904575
-1.59642
-2.89326
-3.92108
-4.62556
-4.96574
-4.92152
-4.49961
-3.73703
-2.70133
-1.48738
-0.210965
1.00034
2.01775
2.72241
3.01549
2.82643
2.11812
0.888758
-0.829663
-2.97575
-5.465
-8.197
-11.0625
-13.9495
-16.7483
-19.3547
-21.6724
-23.6155
-25.1097
-26.0948
-26.5273
-26.3835
-25.6624
-24.3871
-22.6065
-20.3936
-17.8427
-15.0644
-12.179
-9.3089
-6.57027
-4.06536
-1.87497
-0.0521197
1.38288
2.4453
3.18637
3.69044
4.06882
4.45016
4.96831
5.74838
6.8927
8.4682
10.4964
12.9476
15.7398
18.7427
21.7866
24.6763
27.2075
29.1851
30.442
30.8548
30.3564
28.9442
26.6804
23.6886
20.1425
16.2516
12.243
8.34272
4.7573
1.65824
-0.829621
-2.63475
-3.74046
-4.18131
-4.03535
-3.41318
-2.44519
-1.26847
-0.0145111
1.20107
2.28611
3.17637
3.83665
4.25904
4.45847
4.4666
4.3246
4.07579
3.75904
3.40336
3.02438
2.62298
2.186
1.68892
1.10008
0.385781
-0.484383
-1.53271
-2.76963
-4.19141
-5.77955
-7.50184
-9.31482
-11.1673
-13.0046
-14.772
-16.4193
-17.9022
-19.1846
-20.2386
-21.0433
-21.5843
-21.8513
-21.8372
-21.5366
-20.9459
-20.0628
-18.887
-17.4203
-15.6671
-13.6346
-11.3327
-8.77492
-5.97872
-2.96743
0.228005
3.56697
6.99762
10.4564
13.8694
17.155
20.2291
23.0113
25.4312
27.4346
28.9877
30.0793
30.7203
30.9402
30.7817
30.2943
29.5269
28.522
27.3116
25.9151
24.3414
22.5936
20.6762
18.6039
16.4102
14.1538
11.9223
9.83034
8.01178
6.60605
5.73939
5.50291
5.93047
6.97996
8.52126
10.3339
12.1158
13.5043
14.1064
13.5384
11.4684
7.65889
2.00347
-5.44591
-14.4665
-24.6689
-35.5191
-46.3776
-56.552
-65.3594
-72.1909
-76.5739
-78.2218
-77.0673
-73.2712
-67.2024
-59.3867
-50.4225
-40.8672
-31.1004
-21.1789
-10.7
1.29706
16.3633
36.5728
64.3358
102.085
151.854
214.801
290.747
377.814
472.258
568.554
659.76
738.153
796.045
826.709
825.25
789.327
719.588
619.771
496.424
358.289
215.417
78.1298
-44.0471
-143.337
-214.452
-255.02
-265.679
-249.821
-213.052
-162.437
-105.634
-50.0282
-1.96567
33.8306
54.6074
59.6708
50.2314
29.0445
-0.0920553
-32.9082
-65.2262
-93.4508
-114.935
-128.19
-132.923
-129.936
-120.88
-107.944
-93.5015
-79.7737
-68.544
-60.9627
-57.4528
-57.721
-60.8645
-65.5478
-70.2239
-73.3629
-73.6606
-70.1997
-62.5461
-50.7752
-35.4289
-17.4162
2.12555
21.9866
41.0364
58.3526
73.312
85.636
95.3899
102.94
108.876
113.92
118.818
124.251
130.755
138.669
148.114
158.996
171.04
183.834
196.891
209.706
221.809
232.805
242.399
250.396
256.694
261.258
264.089
265.187
264.529
262.042
257.605
251.053
242.204
230.892
217.008
200.544
181.624
160.536
137.729
113.81
89.5009
65.5997
42.9115
22.1849
4.04763
-11.0466
-22.8544
-31.3576
-36.7553
-39.4336
-39.9177
-38.8121
-36.7363
-34.2636
-31.8698
-29.8982
-28.5418
-27.8456
-27.7253
-27.9995
-28.4295
-28.761
-28.7629
-28.2579
-27.1419
-25.3922
-23.0639
-20.277
-17.1962
-14.0084
-10.8994
-8.03401
-5.54073
-3.50323
-1.95779
-0.896635
-0.275605
-0.0244092
-0.057739
-0.285519
-0.621115
-0.986818
-1.31653
-1.55605
-1.66175
-1.59864
-1.33847
-0.858837
-0.143307
0.817473
2.02403
3.46628
5.12223
6.95745
8.92531
10.968
13.018
15.0003
16.8343
18.4375
19.7289
20.634
21.0897
21.0506
20.4933
19.4216
17.8684
15.8965
13.5956
11.0778
8.46991
5.90427
3.50865
1.39622
-0.343318
-1.65039
-2.49941
-2.8993
-2.89077
-2.54054
-1.93331
-1.16229
-0.319595
0.512533
1.26845
1.90313
2.39308
2.73421
2.93721
3.02133
3.00767
2.91306
2.74566
2.50295
2.17228
1.73405
1.16662
0.452183
-0.417507
-1.43676
-2.58359
-3.82003
-5.095
-6.34945
-7.523
-8.56096
-9.42071
-10.0764
-10.5209
-10.7658
-10.8374
-10.7713
-10.6066
-10.378
-10.1118
-9.82125
-9.50705
-9.15872
-8.75917
-8.29025
-7.73859
-7.10054
-6.38516
-5.61471
-4.82242
-4.04786
-3.33065
-2.70322
-2.18398
-1.77134
-1.43973
-1.13782
-0.789562
-0.298016
0.447745
1.56306
3.15586
5.31346
8.0892
11.4905
15.4697
19.9203
24.679
29.5351
34.2478
38.5691
42.2707
45.1702
47.1528
48.1832
48.3065
47.6346
46.3222
44.5357
42.4206
40.0758
37.5383
34.785
31.7506
28.3601
24.5684
20.4015
15.9861
11.5629
7.47628
4.13872
1.975
1.3521
2.50721
5.486
10.1034
15.9357
22.3482
28.5575
33.7197
37.0349
37.8514
35.756
30.6367
22.7083
12.4979
0.790508
-11.4563
-23.2189
-33.5203
-41.5364
-46.6816
-48.6657
-47.5162
-43.5653
-37.4042
-29.8125
-21.6702
-13.8604
-7.17314
-2.213
0.683178
1.51857
0.696585
-0.93334
-2.05112
-0.874093
4.78599
17.3989
39.5111
73.456
120.994
182.919
258.686
346.13
441.351
538.821
631.731
712.582
773.952
809.342
814.005
785.612
724.674
634.637
521.619
393.836
260.759
132.131
16.9544
-77.4195
-145.987
-186.502
-199.554
-188.327
-158.07
-115.379
-67.3701
-20.8543
18.3816
46.1184
60.0174
59.6843
46.4987
23.2513
-6.35196
-38.2435
-68.5339
-93.9718
-112.277
-122.314
-124.109
-118.711
-107.944
-94.086
-79.5171
-66.3984
-56.4061
-50.5555
-49.1259
-51.6857
-57.2061
-64.2386
-71.1311
-76.2519
-78.194
-75.9368
-68.9509
-57.2368
-41.2997
-22.0666
-0.761298
21.2473
42.6036
62.1143
78.8715
92.3389
102.394
109.325
113.783
116.694
119.155
122.301
127.183
134.654
145.275
159.265
176.47
196.388
218.216
240.929
263.38
284.406
302.925
318.023
329.022
335.511
337.352
334.662
327.763
317.127
303.303
286.857
268.314
248.127
226.662
204.206
180.995
157.255
133.242
109.279
85.7743
63.2206
42.1735
23.206
6.85099
-6.46178
-16.4644
-23.0949
-26.5191
-27.1268
-25.5009
-22.3634
-18.505
-14.7078
-11.6694
-9.93972
-9.8754
-11.6187
-15.1003
-20.0646
-26.1139
-32.7626
-39.4972
-45.8318
-51.3554
-55.765
-58.8839
-60.6632
-61.169
-60.5596
-59.0541
-56.8989
-54.3354
-51.5727
-48.7674
-46.0128
-43.3371
-40.7108
-38.0599
-35.2844
-32.2779
-28.9472
-25.2283
-21.0987
-16.5845
-11.7618
-6.75351
-1.72077
3.15012
7.66705
11.6595
15.0178
17.7468
20.0354
22.3373
25.4509
30.5794
39.342
53.7095
75.8412
107.815
151.27
207
274.567
352.02
435.778
520.758
600.738
668.955
718.848
744.861
743.174
712.262
653.187
569.574
467.276
353.764
237.329
126.199
27.6885
-52.5196
-110.872
-146.175
-159.54
-154.079
-134.384
-105.892
-74.1969
-44.4138
-20.6531
-5.6662
-0.68691
-5.46936
-18.5002
-37.3417
-59.0508
-80.6144
-99.345
-113.191
-120.932
-122.244
-117.644
-108.329
-95.9436
-82.3148
-69.1875
-57.9994
-49.7192
-44.7624
-42.9898
-43.7798
-46.1571
-48.9566
-50.9953
-51.2285
-48.871
-43.4699
-34.9237
-23.4504
-9.51566
6.26606
23.2371
40.7938
58.459
75.9226
93.0445
109.826
126.354
142.739
159.045
175.239
191.16
206.512
220.891
233.822
244.821
253.456
259.402
262.48
262.676
260.137
255.143
248.06
239.291
229.218
218.154
206.309
193.781
180.56
166.55
151.616
135.626
118.502
100.261
81.042
61.1209
40.9006
20.8868
1.64807
-16.2354
-32.2249
-45.8744
-56.8718
-65.066
-70.4766
-73.2861
-73.8159
-72.4888
-69.7851
-66.1956
-62.1788
-58.1253
-54.3343
-51.0019
-48.2223
-46.0002
-44.2698
-42.9195
-41.8165
-40.8302
-39.8492
-38.7932
-37.6181
-36.3136
-34.8973
-33.4045
-31.8764
-30.3495
-28.8454
-27.3639
-25.8787
-24.3372
-22.6632
-20.7632
-18.5366
-15.8877
-12.7397
-9.04857
-4.81605
-0.0985858
4.98808
10.2706
15.5267
20.4996
24.9192
28.5254
31.093
32.4548
32.5191
31.2808
28.8236
25.313
20.982
16.1095
10.9961
5.93766
1.20251
-2.98864
-6.47589
-9.167
-11.0375
-12.1245
-12.5167
-12.3399
-11.7418
-10.8769
-9.89219
-8.91507
-8.04458
-7.34575
-6.84744
-6.54366
-6.39782
-6.34958
-6.32348
-6.23853
-6.01771
-5.59663
-4.93026
-3.99732
-2.80194
-1.3728
0.239829
1.96849
3.73365
5.44901
7.02669
8.3821
9.43851
10.1314
10.4126
10.2535
9.64828
8.61528
7.19757
5.46163
3.49438
1.39853
-0.713646
-2.7277
-4.53502
-6.04087
-7.17154
-7.87999
-8.14919
-7.99276
-7.45266
-6.59424
-5.49906
-4.25624
-2.95353
-1.66909
-0.464992
0.616542
1.55403
2.34451
2.99878
3.53488
3.97083
4.31779
4.5746
4.72463
4.73519
4.55982
4.143
3.42693
2.35963
0.903863
-0.953996
-3.19586
-5.76564
-8.56593
-11.4585
-14.27
-16.8018
-18.8459
-20.2027
-20.701
-20.2164
-18.6867
-16.1202
-12.5989
-8.27288
-3.34953
1.92271
7.27319
12.429
17.1342
21.1667
24.352
26.5734
27.7765
27.9706
27.2242
25.6568
23.4272
20.7192
17.7265
14.6372
11.62
8.81362
6.31817
4.19203
2.45275
1.08472
0.0558596
-0.652627
-0.999088
-0.813819
0.287591
3.00119
8.42327
18.1026
34.0229
58.4833
93.858
142.238
204.985
282.264
372.634
472.785
577.521
680.007
772.32
846.225
894.112
909.945
890.099
833.95
744.128
626.374
489.022
342.154
196.551
62.5569
-50.9855
-137.605
-193.771
-219.105
-216.223
-190.243
-148.039
-97.3431
-45.8156
-0.191716
34.3888
54.8098
60.1271
51.4444
31.5523
4.39795
-25.5369
-53.8626
-76.8352
-91.7734
-97.3012
-93.3989
-81.2771
-63.1042
-41.637
-19.8099
-0.339807
14.6048
23.6341
26.2461
22.8118
14.449
2.81176
-10.1703
-22.5652
-32.6859
-39.2827
-41.6586
-39.6991
-33.8198
-24.8463
-13.8492
-1.96139
9.79531
20.6493
30.1673
38.2829
45.2657
51.6397
58.0675
65.2207
73.6542
83.7067
95.4374
108.608
122.713
137.039
150.766
163.071
173.23
180.707
185.213
186.732
185.506
181.992
176.791
170.559
163.916
157.362
151.215
145.57
140.301
135.086
129.468
122.937
115.014
105.338
93.7399
80.2805
65.265
49.2206
32.8435
16.9231
2.25395
-10.4544
-20.6557
-28.0256
-32.4926
-34.2388
-33.6715
-31.3698
-28.0145
-24.3105
-20.9101
-18.3493
-17.0014
-17.0529
-18.5046
-21.1929
-24.8298
-29.0525
-33.4766
-37.7458
-41.571
-44.7556
-47.2053
-48.9221
-49.9856
-50.5261
-50.693
-50.6247
-50.4233
-50.1364
-49.7499
-49.19
-48.3352
-47.0353
-45.1357
-42.5034
-39.0507
-34.7543
-29.6663
-23.9168
-17.7063
-11.2904
-4.95688
0.999902
6.30613
10.7327
14.1144
16.3617
17.4644
17.4873
16.5581
14.8499
12.561
9.89306
7.03195
4.13211
1.30648
-1.37694
-3.89232
-6.24723
-8.46985
-10.5938
-12.643
-14.6193
-16.494
-18.2051
-19.6612
-20.7504
-21.3541
-21.3629
-20.6927
-19.2984
-17.1832
-14.4022
-11.06
-7.30214
-3.30284
0.750614
4.6736
8.2984
11.4854
14.1302
16.1659
17.562
18.3198
18.4654
18.0433
17.1087
15.723
13.9493
11.8507
9.49029
6.93118
4.23829
1.4794
-1.27387
-3.94586
-6.45761
-8.72847
-10.6788
-12.2333
-13.3251
-13.8998
-13.9191
-13.3638
-12.2359
-10.559
-8.37754
-5.75522
-2.77205
0.478861
3.89492
7.36766
10.7863
14.0412
17.027
19.6461
21.8113
23.449
24.5019
24.9312
24.7192
23.8712
22.4173
20.4142
17.9454
15.1204
12.0726
8.95316
5.92467
3.15089
0.786085
-1.0363
-2.21412
-2.68496
-2.43151
-1.48328
0.0856518
2.16261
4.60524
7.25261
9.9372
12.4967
14.7845
16.6785
18.0867
18.9508
19.2465
18.9812
18.1906
16.9317
15.2764
13.3025
11.086
8.69357
6.17662
3.56844
0.884099
-1.87634
-4.72184
-7.66238
-10.7002
-13.8218
-16.9916
-20.1495
-23.2116
-26.0753
-28.6284
-30.7599
-32.3733
-33.3979
-33.7994
-33.5866
-32.8139
-31.5795
-30.0186
-28.2939
-26.5824
-25.061
-23.8927
-23.2136
-23.1225
-23.6747
-24.8793
-26.7009
-29.065
-31.8663
-34.9784
-38.2645
-41.5865
-44.8129
-47.8244
-50.5161
-52.7978
-54.5928
-55.8345
-56.4644
-56.4298
-55.6841
-54.1893
-51.9212
-48.876
-45.0786
-40.59
-35.5125
-29.9914
-24.2113
-18.3874
-12.7515
-7.53367
-2.94158
0.85976
3.76607
5.74644
6.8486
7.19566
6.97401
6.4136
5.76267
5.2601
5.10884
5.45375
6.36669
7.84066
9.79347
12.0804
14.5134
16.8853
18.9939
20.665
21.7704
22.2389
22.0604
21.2825
20.0007
18.3442
16.4591
14.4913
12.5714
10.8027
9.25415
7.95752
6.90976
6.07879
5.41211
4.84673
4.31909
3.77368
3.16966
2.48457
1.7153
0.876155
-0.00526203
-0.893798
-1.75321
-2.55247
-3.27114
-3.90308
-4.45827
-4.96248
-5.4552
-5.98628
-6.61166
-7.38853
-8.36912
-9.5912
-11.0623
-12.7329
-14.4557
-15.9271
-16.6153
-15.6844
-11.9312
-3.76057
10.7716
33.8239
67.53
113.662
173.23
246.077
330.542
423.281
519.291
612.199
694.788
759.721
800.373
811.65
790.691
737.33
654.253
546.815
422.537
290.345
159.641
39.336
-63.0438
-142.062
-194.818
-221.08
-223.116
-205.255
-173.243
-133.5
-92.3503
-55.3415
-26.7125
-9.06315
-3.24776
-8.48418
-22.645
-42.6785
-65.096
-86.4602
-103.815
-115.01
-118.891
-115.343
-105.205
-90.0602
-71.966
-53.1398
-35.6596
-21.2101
-10.9052
-5.20049
-3.90158
-6.25588
-11.1097
-17.1029
-22.872
-27.2331
-29.3207
-28.6681
-25.221
-19.2903
-11.4533
-2.4255
7.07751
16.4648
25.3632
33.6665
41.5369
49.3604
57.668
67.0354
77.9793
90.8652
105.841
122.801
141.393
161.051
181.057
200.625
218.985
235.457
249.515
260.823
269.241
274.805
277.684
278.127
276.398
272.73
267.278
260.105
251.182
240.415
227.677
212.866
195.948
177.008
156.279
134.159
111.205
88.1047
65.628
44.5699
25.6795
9.5936
-3.22296
-12.5202
-18.2855
-20.7424
-20.3263
-17.6402
-13.3953
-8.34437
-3.214
1.3561
4.86169
6.96611
7.51383
6.52557
4.17699
0.764394
-3.33799
-7.72408
-12.0005
-15.8255
-18.9379
-21.1756
-22.4812
-22.8962
-22.5451
-21.6121
-20.3146
-18.8751
-17.4961
-16.3409
-15.5199
-15.0845
-15.0278
-15.2887
-15.7609
-16.3014
-16.7419
-16.8993
-16.588
-15.6344
-13.8939
-11.269
-7.72834
-3.32338
1.80185
7.40951
13.1789
18.7296
23.6565
27.5716
30.1495
31.1687
30.5438
28.343
24.7877
20.2335
15.1356
10.0003
5.33118
1.57511
-0.925665
-1.96888
-1.51185
0.326746
3.28274
6.97775
10.9619
14.7631
17.9363
20.1087
21.0143
20.5159
18.6121
15.4296
11.202
6.23997
0.89375
-4.48419
-9.57454
-14.1197
-17.9431
-20.9578
-23.1646
-24.6404
-25.519
-25.9681
-26.1649
-26.2733
-26.4263
-26.7136
-27.1771
-27.8121
-28.5752
-29.3955
-30.1884
-30.8688
-31.3637
-31.6207
-31.6135
-31.3438
-30.8383
-30.1443
-29.3226
-28.4391
-27.558
-26.7342
-26.0091
-25.4072
-24.9352
-24.5831
-24.3263
-24.1285
-23.9462
-23.732
-23.4379
-23.0186
-22.4338
-21.65
-20.6426
-19.3973
-17.9124
-16.1996
-14.2862
-12.2146
-10.0421
-7.8381
-5.67996
-3.64729
-1.81497
-0.245806
1.0163
1.95166
2.56771
2.89897
3.00392
2.95923
2.85212
2.77234
2.80504
3.026
3.50008
4.28289
5.4249
6.97611
8.98903
11.5176
14.6106
18.2982
22.5746
27.3777
32.5705
37.9307
43.1499
47.849
51.6078
54.009
54.6921
53.4082
50.0694
44.7832
37.8643
29.821
21.314
13.0927
5.91525
0.462783
-2.7414
-3.39706
-1.46795
2.80702
8.93391
16.2127
23.8091
30.8404
36.4656
39.9691
40.8293
38.7658
33.7611
26.0556
16.12
4.60864
-7.70057
-19.9721
-31.3795
-41.1688
-48.7123
-53.554
-55.4419
-54.3468
-50.4656
-44.2069
-36.1554
-27.0131
-17.5149
-8.31846
0.12563
7.7153
14.8302
22.4328
32.1063
45.9996
66.6553
96.7144
138.512
193.606
262.313
343.322
433.487
527.85
619.945
702.356
767.489
808.453
819.925
798.89
745.124
661.36
553.099
428.085
295.515
165.07
45.9138
-54.2401
-129.864
-178.08
-198.806
-194.579
-170.099
-131.554
-85.8321
-39.7158
0.851735
31.3346
48.9622
52.849
43.8837
24.423
-2.15663
-31.9797
-61.1969
-86.4495
-105.224
-116.065
-118.634
-113.625
-102.563
-87.5171
-70.7811
-54.5581
-40.6911
-30.4672
-24.5132
-22.7854
-24.6452
-29.003
-34.5042
-39.73
-43.3857
-44.4543
-42.2973
-36.6964
-27.8348
-16.2269
-2.61137
12.175
27.3221
42.1542
56.2052
69.2558
81.3307
92.6605
103.617
114.636
126.135
138.445
151.759
166.104
181.337
197.173
213.217
229.02
244.131
258.143
270.734
281.681
290.869
298.269
303.908
307.822
310.014
310.407
308.814
304.932
298.356
288.628
275.307
258.054
236.725
211.448
182.677
151.208
118.149
84.8437
52.7638
23.3701
-2.03091
-22.4199
-37.1694
-46.1059
-49.5225
-48.1388
-43.0164
-35.438
-26.7684
-18.3127
-11.1895
-6.23255
-3.93091
-4.41244
-7.46878
-12.6161
-19.1817
-26.4032
-33.5284
-39.9031
-45.0375
-48.6445
-50.6494
-51.171
-50.4804
-48.945
-46.9654
-44.9159
-43.0944
-41.6885
-40.76
-40.2488
-39.9933
-39.7635
-39.3002
-38.3567
-36.7341
-34.3082
-31.0448
-27.0008
-22.3135
-17.1807
-11.8336
-6.5076
-1.41471
3.28014
7.47753
11.1576
14.3933
17.367
20.3957
23.9676
28.7873
35.8198
46.3154
61.791
83.9437
114.477
154.839
205.898
267.588
338.61
416.234
496.3
573.422
641.431
693.997
725.367
731.104
708.733
658.169
581.874
484.695
373.408
256.017
140.906
35.9545
-52.2706
-119.148
-162.381
-182.1
-180.671
-162.271
-132.284
-96.6053
-60.9509
-30.2419
-8.14404
3.20582
3.2672
-7.02873
-25.5622
-49.4159
-75.3148
-100.058
-120.893
-135.787
-143.588
-144.054
-137.774
-126.003
-110.428
-92.9207
-75.2952
-59.1021
-45.4814
-35.0826
-28.0537
-24.0919
-22.5425
-22.5264
-23.0797
-23.2839
-22.3728
-19.8063
-15.3033
-8.83706
-0.595896
9.08007
19.7755
31.0772
42.6417
54.2433
65.7975
77.3588
89.0933
101.234
114.023
127.657
142.234
157.718
173.92
190.497
206.977
222.791
237.32
249.946
260.096
267.288
271.157
271.475
268.157
261.261
250.972
237.592
221.512
203.196
183.159
161.941
140.093
118.153
96.6364
76.0138
56.6993
39.0357
23.2822
9.60404
-1.93352
-11.3672
-18.8316
-24.5489
-28.8113
-31.958
-34.3461
-36.3187
-38.1723
-40.1283
-42.3106
-44.7347
-47.3093
-49.851
-52.1111
-53.8125
-54.6889
-54.5245
-53.1864
-50.6465
-46.9893
-42.4055
-37.1716
-31.6199
-26.101
-20.9458
-16.4308
-12.7504
-10.0004
-8.17278
-7.16356
-6.79003
-6.81647
-6.98408
-7.04157
-6.77303
-6.02003
-4.69582
-2.79065
-0.368202
2.4459
5.48162
8.54574
11.4441
14.0026
16.084
17.5993
18.513
18.8401
18.6385
17.9955
17.0121
15.7877
14.4073
12.9328
11.4004
9.82385
8.20201
6.5297
4.80918
3.05996
1.32496
-0.328496
-1.81317
-3.03156
-3.88916
-4.30943
-4.24788
-3.70289
-2.72156
-1.39914
0.127961
1.69493
3.12547
4.25062
4.92708
5.05267
4.57687
3.5054
1.89815
-0.138835
-2.46631
-4.92774
-7.36625
-9.64029
-11.6364
-13.2776
-14.5267
-15.3846
-15.8848
-16.0834
-16.049
-15.8514
-15.5516
-15.1948
-14.8065
-14.3905
-13.9314
-13.3981
-12.7492
-11.9387
-10.9221
-9.66252
-8.13574
-6.33435
-4.27102
-1.98003
0.482725
3.04181
5.60599
8.07377
10.3402
12.3046
13.8783
14.9919
15.6017
15.693
15.2817
14.4114
13.1477
11.5693
9.75645
7.78075
5.69575
3.53215
1.29836
-1.01325
-3.41501
-5.90948
-8.47464
-11.0518
-13.539
-15.7923
-17.6357
-18.879
-19.3414
-18.8783
-17.4062
-14.9223
-11.5154
-7.36554
-2.7327
2.06442
6.67734
10.7603
14.0029
16.159
17.0694
16.6767
15.0302
12.2836
8.68267
4.54769
0.249147
-3.81994
-7.27399
-9.76517
-11.0121
-10.8245
-9.12236
-5.94683
-1.46166
4.05569
10.2335
16.6346
22.7932
28.2553
32.6203
35.5791
36.9432
36.6637
34.835
31.6835
27.5419
22.811
17.9143
13.2505
9.14944
5.83865
3.42291
1.88103
1.07921
0.799121
0.776401
0.743968
0.473889
-0.188045
-1.29974
-2.81498
-4.59114
-6.41075
-8.01363
-9.13486
-9.54329
-9.07546
-7.6605
-5.33319
-2.23384
1.40464
5.28038
9.05364
12.3815
14.9517
16.5123
16.8943
16.0249
13.9321
10.7409
6.66153
1.97304
-2.99748
-7.89792
-12.3753
-16.0998
-18.7877
-20.2219
-20.2695
-18.8941
-16.1628
-12.247
-7.41476
-2.01555
3.54208
8.82005
13.3848
16.8434
18.8791
19.282
17.9728
15.0147
10.6136
5.10415
-1.07658
-7.42719
-13.427
-18.5846
-22.4857
-24.8339
-25.4824
-24.4515
-21.931
-18.2653
-13.9229
-9.44903
-5.40547
-2.29622
-0.482867
-0.0911248
-0.913333
-2.31512
-3.15967
-1.76895
4.05403
16.917
39.6248
74.8551
124.739
190.388
271.444
365.72
469.044
575.351
677.075
765.822
833.245
872.032
876.854
845.13
777.502
677.92
553.331
412.986
267.472
127.583
3.17725
-97.8213
-170.174
-211.734
-223.472
-209.151
-174.694
-127.354
-74.789
-24.1775
18.5395
49.1956
65.6753
67.9187
57.6794
38.0896
13.1044
-13.093
-36.6493
-54.4963
-64.6581
-66.389
-60.1448
-47.41
-30.4199
-11.8252
5.65434
19.5443
27.8659
29.3032
23.2798
9.95066
-9.87741
-34.8778
-63.3663
-93.4734
-123.309
-151.106
-175.332
-194.771
-208.567
-216.237
-217.66
-213.039
-202.853
-187.801
-168.731
-146.581
-122.315
-96.8638
-71.0765
-45.6802
-21.2502
1.80686
23.2572
43.031
61.202
77.9558
93.5514
108.278
122.412
136.173
149.693
162.991
175.955
188.349
199.824
209.948
218.24
224.223
227.466
227.635
224.529
218.106
208.495
195.988
181.016
164.122
145.911
127.01
108.025
89.5056
71.9202
55.6389
40.928
27.9514
16.7787
7.396
-0.280316
-6.38971
-11.1135
-14.6614
-17.2586
-19.1328
-20.5031
-21.5684
-22.498
-23.4245
-24.4388
-25.5889
-26.8823
-28.2917
-29.7633
-31.2276
-32.6104
-33.8431
-34.8712
-35.6606
-36.2
-36.5004
-36.592
-36.5181
-36.3283
-36.0715
-35.7887
-35.5082
-35.2419
-34.9843
-34.7133
-34.393
-33.9781
-33.4185
-32.6651
-31.6747
-30.4144
-28.865
-27.023
-24.9014
-22.5297
-19.9519
-17.2241
-14.4111
-11.5831
-8.81087
-6.16296
-3.7016
-1.48036
0.457957
2.08245
3.37476
4.32909
4.9519
5.26116
5.28538
5.06203
4.63554
4.05471
3.36959
2.62834
1.87434
1.14417
0.467118
-0.13395
-0.640099
-1.03303
-1.29164
-1.38935
-1.29304
-0.964
-0.361218
0.553511
1.80912
3.41853
5.37255
7.63568
10.1444
12.8088
15.5173
18.145
20.5635
22.6528
24.3129
25.4739
26.1038
26.2118
25.8477
25.097
24.071
22.8946
21.6926
20.5753
19.6266
18.8958
18.3929
18.0902
17.9272
17.8205
17.6763
17.4022
16.9198
16.1727
15.1302
13.7857
12.148
10.2273
8.0182
5.48246
2.53654
-0.952728
-5.16115
-10.2883
-16.5284
-24.0353
-32.8875
-43.0585
-54.401
-66.647
-79.4272
-92.3082
-104.843
-116.625
-127.344
-136.826
-145.05
-152.151
-158.391
-164.109
-169.659
-175.345
-181.358
-187.731
-194.311
-200.766
-206.612
-211.266
-214.112
-214.578
-212.209
-206.722
-198.053
-186.365
-172.049
-155.683
-137.982
-119.739
-101.75
-84.7495
-69.3529
-56.0122
-44.9898
-36.3522
-29.9812
-25.6024
-22.8261
-21.1955
-20.2386
-19.5163
-18.6636
-17.4189
-15.6397
-13.3039
-10.4965
-7.38636
-4.19403
-1.15713
1.50353
3.61241
5.05944
5.81006
5.90477
5.4491
4.59625
3.52507
2.41668
1.43275
0.697923
0.288131
0.225817
0.481834
0.98329
1.62588
2.28892
2.85121
3.20593
3.27295
3.00752
2.40445
1.49783
0.35654
-0.92309
-2.22526
-3.41942
-4.35626
-4.84864
-4.63182
-3.30129
-0.233254
5.49721
15.1759
30.4552
53.2746
85.6731
129.49
185.977
255.376
336.529
426.617
521.095
613.879
697.804
765.316
809.311
824.032
805.868
753.954
670.456
560.503
431.747
293.611
156.313
29.7903
-77.3301
-158.602
-210.349
-231.924
-225.609
-196.182
-150.235
-95.3149
-39.0293
11.7983
51.8082
77.5594
87.7194
82.9884
65.7916
39.7948
9.32024
-21.2576
-48.0615
-68.1429
-79.7543
-82.4438
-76.9767
-65.1107
-49.266
-32.1417
-16.333
-3.9957
3.4014
5.21343
1.63781
-6.37778
-17.316
-29.3275
-40.4911
-49.0588
-53.659
-53.4335
-48.0988
-37.9312
-23.6845
-6.45823
12.4636
31.7791
50.3204
67.1734
81.755
93.8423
103.555
111.303
117.694
123.445
129.272
135.798
143.487
152.593
163.143
174.95
187.641
200.712
213.582
225.656
236.376
245.264
251.953
256.193
257.854
256.909
253.409
247.462
239.203
228.782
216.352
202.068
186.1
168.643
149.941
130.298
110.094
89.7794
69.8696
50.9169
33.4764
18.0632
5.10687
-5.08997
-12.3842
-16.8107
-18.5832
-18.0784
-15.8029
-12.3472
-8.33305
-4.35796
-0.944709
1.49952
2.71021
2.57645
1.13537
-1.44825
-4.91399
-8.94502
-13.2096
-17.3996
-21.2627
-24.6241
-27.3966
-29.5788
-31.2432
-32.5152
-33.5476
-34.4937
-35.4816
-36.5948
-37.859
-39.238
-40.6381
-41.9206
-42.9199
-43.4654
-43.4036
-42.6179
-41.0439
-38.6778
-35.5768
-31.8532
-27.6607
-23.1769
-18.584
-14.0478
-9.69909
-5.61476
-1.79782
1.84764
5.55014
9.71468
14.9739
22.2363
32.7153
47.9146
69.5479
99.3732
138.939
189.259
250.456
321.439
399.685
481.19
560.647
631.847
688.294
723.934
733.935
715.366
667.692
592.994
495.867
383.01
262.546
143.166
33.2151
-60.1746
-131.79
-178.793
-200.894
-200.214
-180.891
-148.478
-109.215
-69.2874
-34.1465
-7.97026
6.67693
8.96505
-0.295847
-18.9354
-43.8372
-71.424
-98.1498
-120.935
-137.502
-146.568
-147.904
-142.247
-131.102
-116.465
-100.515
-85.3115
-72.5385
-63.32
-58.1284
-56.784
-58.5395
-62.2278
-66.4505
-69.777
-70.9278
-68.9212
-63.1671
-53.5028
-40.1716
-23.7537
-5.0631
14.972
35.4288
55.4937
74.5388
92.1643
108.207
122.715
135.902
148.086
159.618
170.828
181.968
193.186
204.509
215.845
227.002
237.709
247.642
256.455
263.796
269.326
272.73
273.725
272.068
267.565
260.081
249.555
236.013
219.581
200.494
179.098
155.839
131.252
105.933
80.5128
55.6204
31.8542
9.75016
-10.2412
-27.7722
-42.6072
-54.6252
-63.8148
-70.2656
-74.1544
-75.7299
-75.2957
-73.1923
-69.7802
-65.4228
-60.4711
-55.2498
-50.0461
-45.1003
-40.6004
-36.6786
-33.4114
-30.822
-28.8854
-27.5356
-26.6737
-26.1784
-25.9159
-25.751
-25.5575
-25.2277
-24.6803
-23.8658
-22.7692
-21.4089
-19.8332
-18.1129
-16.3318
-14.5766
-12.9256
-11.4403
-10.1578
-9.08822
-8.21493
-7.49886
-6.88573
-6.31506
-5.7297
-5.08429
-4.35174
-3.5265
-2.62466
-1.68075
-0.742023
0.138735
0.910858
1.53261
1.97632
2.2311
2.30313
2.21358
1.99474
1.68531
1.32556
0.953258
0.600758
0.293542
0.0500233
-0.117744
-0.20293
-0.202862
-0.118383
0.0462153
0.282748
0.57843
0.915305
1.27019
1.61549
1.92096
2.15643
2.29499
2.31627
2.20904
1.97268
1.61703
1.16073
0.628485
0.0477568
-0.55416
-1.15224
-1.72462
-2.25252
-2.71933
-3.10963
-3.40859
-3.60204
-3.67736
-3.62506
-3.4406
-3.12605
-2.69098
-2.15252
-1.53425
-0.864234
-0.172386
0.512264
1.16404
1.76239
2.29277
2.74661
3.12047
3.41478
3.6324
3.77734
3.85384
3.86589
3.81716
3.71131
3.55243
3.34561
3.09739
2.81609
2.51184
2.19644
1.88293
1.58503
1.3165
1.09053
0.919268
0.813459
0.782353
0.833778
0.974325
1.20953
1.5439
1.98059
2.52065
3.16182
3.89686
4.71175
5.58393
6.48098
7.36027
8.16975
8.85033
9.33972
9.57757
9.51137
9.10241
8.33106
7.20064
5.7392
3.99919
2.05465
-0.00356915
-2.07421
-4.05304
-5.84049
-7.34885
-8.50834
-9.27155
-9.61607
-9.54507
-9.08613
-8.28853
-7.21939
-5.95917
-4.59683
-3.22512
-1.93607
-0.817097
0.0524472
0.604006
0.78206
0.545935
-0.128541
-1.24721
-2.79529
-4.73463
-7.00075
-9.50059
-12.112
-14.6865
-17.0557
-19.0429
-20.4776
-21.2129
-21.1426
-20.2158
-18.4457
-15.9126
-12.7578
-9.1711
-5.37256
-1.5906
1.95987
5.09717
7.68787
9.65551
10.9827
11.7067
11.9099
11.7068
11.2291
10.6115
9.97853
9.43494
9.05859
8.89723
8.96803
9.25972
9.73657
10.3438
11.0137
11.6727
12.248
12.6747
12.9015
12.8956
12.6453
12.1609
11.4716
10.6218
9.66427
8.65272
7.63485
6.646
5.70495
4.81204
3.94998
3.08705
2.18218
1.19132
0.074076
-1.20007
-2.64678
-4.26374
-6.02952
-7.90475
-9.83513
-11.7561
-13.5982
-15.2935
-16.7802
-18.0069
-18.9336
-19.5263
-19.7433
-19.5067
-18.6571
-16.8867
-13.6578
-8.11661
0.974468
15.2579
36.7214
67.5325
109.755
164.967
233.815
315.597
407.935
506.656
605.914
698.612
777.064
833.854
862.755
859.581
822.834
754.05
657.77
541.131
413.139
283.706
162.588
58.3541
-22.4722
-76.0114
-101.296
-100.196
-77.0283
-37.9179
9.99726
59.4155
103.671
137.395
156.976
160.777
149.121
124.045
88.8923
47.7995
5.13914
-35.0007
-69.2505
-95.2638
-111.869
-119.068
-117.898
-110.182
-98.2269
-84.4826
-71.2364
-60.3558
-53.1129
-50.1018
-51.2468
-55.8913
-62.9472
-71.08
-78.9018
-85.15
-88.8296
-89.3063
-86.3455
-80.0968
-71.0339
-59.8597
-47.3954
-34.4658
-21.7983
-9.9453
0.762851
10.2305
18.5781
26.0976
33.1897
40.2931
47.8153
56.0738
65.2538
75.3868
86.3501
97.8871
109.642
121.208
132.171
142.162
150.889
158.162
163.897
168.107
170.871
172.301
172.499
171.514
169.32
165.801
160.766
153.976
145.199
134.267
121.137
105.942
89.0175
70.904
52.3187
34.0981
17.1205
2.21622
-9.92054
-18.8078
-24.2284
-26.2524
-25.2265
-21.7323
-16.5186
-10.4174
-4.25384
1.23841
5.48604
8.12252
9.00712
8.21617
6.00944
2.77749
-1.02229
-4.93222
-8.55493
-11.601
-13.9183
-15.5014
-16.4796
-17.089
-17.6309
-18.4248
-19.7607
-21.8587
-24.8387
-28.7048
-33.3448
-38.5437
-44.0086
-49.4019
-54.3766
-58.6107
-61.8366
-63.8619
-64.5803
-63.973
-62.1007
-59.0888
-55.1085
-50.3569
-45.0378
-39.3473
-33.4637
-27.5437
-21.7227
-16.1197
-10.8429
-5.99566
-1.67922
2.00802
4.97551
7.14943
8.4837
8.97136
8.65359
7.62462
6.03055
4.06165
1.93831
-0.107978
-1.85647
-3.11923
-3.76059
-3.71144
-2.97661
-1.63417
0.172965
2.25247
4.38278
6.33593
7.90016
8.89996
9.21133
8.77116
7.57995
5.6987
3.24077
0.360477
-2.75993
-5.92366
-8.93193
-11.5953
-13.7434
-15.2335
-15.9577
-15.8491
-14.8865
-13.098
-10.5625
-7.40819
-3.8079
0.028929
3.86835
7.4669
10.5888
13.0235
14.603
15.2151
14.8138
13.4231
11.1363
8.10791
4.5418
0.675023
-3.24049
-6.95681
-10.2478
-12.9247
-14.8482
-15.9365
-16.1688
-15.5847
-14.2783
-12.389
-10.089
-7.56818
-5.01858
-2.61869
-0.519849
1.16457
2.36609
3.06357
3.28118
3.08221
2.55951
1.82387
0.991553
0.172396
-0.540088
-1.07579
-1.39161
-1.47143
-1.32301
-0.972381
-0.456726
0.183017
0.909008
1.69187
2.51404
3.37082
4.26926
5.22511
6.25864
7.38992
8.6345
10.0001
11.4848
13.077
14.7572
16.5001
18.2782
20.064
21.832
23.5583
25.2199
26.7917
28.2432
29.5356
30.6195
31.4343
31.9104
31.9725
31.5462
30.5643
28.9748
26.7475
23.8793
20.3984
16.3664
11.8789
7.06463
2.08213
-2.88485
-7.63475
-11.958
-15.6492
-18.5218
-20.4228
-21.2487
-20.9581
-19.582
-17.2284
-14.0817
-10.3958
-6.48137
-2.68752
0.622106
3.10034
4.45677
4.51092
3.26123
0.970377
-1.73825
-3.78597
-3.5687
1.05847
12.7091
34.278
68.6264
118.153
184.293
267.02
364.441
472.574
585.406
695.241
793.363
870.919
919.938
934.327
910.707
848.958
752.386
627.476
483.263
330.392
179.997
42.5472
-73.2117
-161.074
-217.872
-243.604
-241.203
-215.987
-174.886
-125.546
-75.4281
-31.015
2.8018
23.0862
28.958
21.4421
3.10953
-22.4256
-51.0767
-78.847
-102.315
-118.992
-127.522
-127.72
-120.454
-107.412
-90.792
-72.9637
-56.1435
-42.1283
-32.1102
-26.5872
-25.3709
-27.6804
-32.3003
-37.7793
-42.6384
-45.5636
-45.5611
-42.058
-34.9426
-24.5424
-11.5507
3.08898
18.3198
33.1143
46.6033
58.1775
67.551
74.7806
80.2418
84.5658
88.5476
93.037
98.8268
106.551
116.606
129.1
143.843
160.367
177.975
195.824
213.004
228.634
241.936
252.297
259.304
262.751
262.625
259.067
252.325
242.703
230.517
216.067
199.622
181.432
161.749
140.861
119.122
96.9784
74.9711
53.7244
33.909
16.1883
1.15321
-10.7457
-19.2584
-24.3788
-26.3625
-25.716
-23.1553
-19.539
-15.7823
-12.7638
-11.2349
-11.7448
-14.5895
-19.7916
-27.1118
-36.0916
-46.1198
-56.5143
-66.6088
-75.8322
-83.7716
-90.2113
-95.1426
-98.7453
-101.344
-103.343
-105.162
-107.158
-109.572
-112.491
-115.835
-119.368
-122.735
-125.517
-127.291
-127.694
-126.475
-123.535
-118.936
-112.905
-105.796
-98.0547
-90.1608
-82.5704
-75.6634
-69.7008
-64.7975
-60.9141
-57.8679
-55.3614
-53.0263
-50.4745
-47.3525
-43.3907
-38.4421
-32.5043
-25.7236
-18.3801
-10.8553
-3.58752
2.97884
8.44502
12.5025
14.9661
15.7914
15.0761
13.0434
10.0141
6.36804
2.50176
-1.21192
-4.4588
-7.00845
-8.72755
-9.58141
-9.6244
-8.98208
-7.82778
-6.35728
-4.76461
-3.22165
-1.86328
-0.77905
-0.0111863
0.441572
0.615857
0.572787
0.386062
0.130613
-0.12694
-0.33515
-0.461527
-0.493277
-0.435385
-0.306708
-0.134877
0.0491484
0.216123
0.342562
0.413406
0.423155
0.375529
0.281905
0.158904
0.0255418
-0.0996029
-0.200845
-0.267185
-0.293288
-0.2796
-0.231696
-0.159032
-0.0733122
0.0132496
0.0895599
0.146955
0.180065
0.187179
0.170146
0.133948
0.0861809
0.0367037
-0.00222366
-0.0151505
0.0180131
0.123828
0.33702
0.701368
1.26914
2.09865
3.24987
4.77843
6.72872
9.12695
11.9753
15.248
18.8896
22.8166
26.9209
31.0766
35.147
38.9942
42.4867
45.5083
47.9647
49.7885
50.9431
51.4231
51.2535
50.4866
49.1969
47.4753
45.4235
43.1489
40.7608
38.3682
36.078
33.9939
32.2131
30.8214
29.8849
29.4397
29.4794
29.9441
30.7122
31.5986
32.3617
32.7197
32.3761
31.052
28.521
24.6431
19.3909
12.8653
5.2975
-2.9648
-11.4846
-19.7746
-27.3433
-33.7427
-38.6135
-41.7221
-42.9854
-42.4814
-40.4438
-37.24
-33.3333
-29.2308
-25.4177
-22.2804
-20.0179
-18.5478
-17.4112
-15.6904
-11.9574
-4.27991
9.69077
32.5258
66.7134
114.257
176.217
252.273
340.38
436.609
535.24
629.138
710.391
771.145
804.546
805.629
772.054
704.544
606.966
486.031
350.635
210.933
77.2625
-40.9458
-136.13
-203.316
-240.512
-248.746
-231.755
-195.385
-146.791
-93.5403
-42.7475
-0.322281
29.571
44.8039
45.3072
32.8486
10.6128
-17.346
-46.7014
-73.4236
-94.2521
-107.023
-110.827
-105.989
-93.8994
-76.7216
-57.0366
-37.4678
-20.3387
-7.40498
0.3154
2.59966
-0.0289327
-6.44053
-15.1014
-24.3078
-32.418
-38.0532
-40.2457
-38.52
-32.9037
-23.8738
-12.2504
0.944126
14.6409
27.8743
39.9074
50.3186
59.0389
66.3381
72.7626
79.0355
85.9334
94.1601
104.232
116.394
130.579
146.407
163.233
180.235
196.515
211.215
223.621
233.238
239.835
243.44
244.302
242.816
239.429
234.545
228.441
221.215
212.771
202.849
191.093
177.141
160.73
141.793
120.521
97.3936
73.155
48.751
25.2255
3.59932
-15.2529
-30.7075
-42.4643
-50.5741
-55.4209
-57.6606
-58.1268
-57.7185
-57.2846
-57.5212
-58.8952
-61.601
-65.5566
-70.4346
-75.7241
-80.8119
-85.0726
-87.9546
-89.0518
-88.1523
-85.2596
-80.5858
-74.519
-67.5707
-60.3115
-53.3036
-47.0389
-41.8895
-38.0761
-35.6564
-34.5333
-34.4802
-35.1788
-36.2645
-37.3712
-38.1729
-38.4153
-37.935
-36.666
-34.6335
-31.938
-28.732
-25.1949
-21.5086
-17.8368
-14.3119
-11.0271
-8.03734
-5.3634
-3.00106
-0.930467
0.874759
2.44042
3.78723
4.92889
5.87237
6.61953
7.16966
7.52217
7.67952
7.65025
7.45222
7.11593
6.68768
6.23157
5.82976
5.5798
5.58863
5.96281
6.7956
8.1521
10.0541
12.4669
15.2911
18.3606
21.4484
24.2811
26.5607
27.992
28.3122
27.3206
24.9028
21.0484
15.8581
9.54061
2.39819
-5.19629
-12.8297
-20.082
-26.5603
-31.9286
-35.9321
-38.4137
-39.3198
-38.6993
-36.6927
-33.5155
-29.4375
-24.7596
-19.79
-14.823
-10.1208
-5.89876
-2.31697
0.524473
2.58492
3.87875
4.46777
4.45126
3.95465
3.1177
2.08295
0.985146
-0.0576858
-0.951163
-1.62899
-2.05484
-2.22163
-2.14847
-1.87561
-1.45805
-0.958335
-0.439483
0.0415309
0.438953
0.721783
0.875427
0.901499
0.815985
0.64615
0.426651
0.195351
-0.0106952
-0.158703
-0.222791
-0.185614
-0.0389766
0.216531
0.572715
1.01558
1.52759
2.09007
2.68578
3.30132
3.92932
4.57034
5.23412
5.94025
6.71778
7.60393
8.6417
9.87646
11.3517
13.1042
15.1588
17.5227
20.181
23.0921
26.1849
29.358
32.4816
35.4026
37.9532
39.9625
41.2705
41.7427
41.2847
39.8537
37.4656
34.1972
30.182
25.6001
20.6633
15.597
10.6215
5.93435
1.69606
-1.97859
-5.02414
-7.42191
-9.19277
-10.3863
-11.0679
-11.3052
-11.1533
-10.638
-9.73204
-8.32092
-6.15368
-2.77857
2.52885
10.8295
23.5516
42.4589
69.53
106.732
155.692
217.306
291.326
376.021
467.983
562.144
652.064
730.457
789.937
823.874
827.254
797.405
734.489
641.667
524.898
392.402
253.834
119.285
-1.77696
-101.467
-174.259
-217.458
-231.34
-218.949
-185.589
-138.096
-83.9809
-30.5601
15.8244
50.4099
70.3837
74.995
65.4172
44.3982
15.7596
-16.1797
-47.1817
-73.5969
-92.7495
-103.163
-104.614
-98.0271
-85.2371
-68.657
-50.9098
-34.4682
-21.3485
-12.8932
-9.65941
-11.4204
-17.2664
-25.7844
-35.2853
-44.0447
-50.5252
-53.552
-52.4249
-46.9569
-37.4433
-24.5718
-9.29206
7.33322
24.2747
40.6615
55.8711
69.578
81.7591
92.6607
102.736
112.564
122.757
133.873
146.339
160.395
176.055
193.103
211.107
229.46
247.435
264.251
279.15
291.457
300.641
306.353
308.444
306.963
302.125
294.271
283.811
271.165
256.714
240.761
223.519
205.115
185.625
165.117
143.704
121.591
99.1087
76.7251
55.0288
34.6876
16.386
0.749937
-11.7286
-20.7569
-26.2858
-28.5265
-27.936
-25.1738
-21.035
-16.3676
-11.9864
-8.59244
-6.70828
-6.63636
-8.44397
-11.9753
-16.8872
-22.7042
-28.8827
-34.8787
-40.2096
-44.5034
-47.5307
-49.2177
-49.6391
-48.9949
-47.5732
-45.7066
-43.7259
-41.9184
-40.4948
-39.5687
-39.1503
-39.1542
-39.4201
-39.7419
-39.9018
-39.7041
-39.0036
-37.7256
-35.8752
-33.5334
-30.8443
-27.9921
-25.1739
-22.5704
-20.3177
-18.4795
-17.0196
-15.7685
-14.3815
-12.2862
-8.62615
-2.2134
8.48633
25.3078
50.255
85.2705
131.913
190.978
262.113
343.518
431.786
521.97
607.89
682.679
739.501
772.366
776.908
751.021
695.237
612.803
509.414
392.647
271.161
153.776
48.54
-38.0872
-101.838
-140.967
-156.272
-150.823
-129.452
-98.0694
-62.92
-29.8492
-3.68561
12.206
16.1599
8.22338
-10.0313
-35.856
-65.7789
-96.0972
-123.345
-144.687
-158.193
-162.98
-159.206
-147.956
-131.01
-110.568
-88.9449
-68.2923
-50.3606
-36.3411
-26.7894
-21.6336
-20.2559
-21.6316
-24.5006
-27.5485
-29.5727
-29.6157
-27.0519
-21.6213
-13.4122
-2.79973
9.64756
23.2761
37.4554
51.6692
65.5789
79.0508
92.1458
105.077
118.141
131.639
145.798
160.706
176.267
192.19
208.007
223.115
236.837
248.494
257.477
263.303
265.656
264.406
259.603
251.461
240.316
226.588
210.741
193.249
174.569
155.135
135.349
115.587
96.2105
77.5688
60.0026
43.8394
29.3801
16.8808
6.52876
-1.58072
-7.46478
-11.2651
-13.2487
-13.7959
-13.374
-12.4994
-11.6903
-11.4163
-12.0505
-13.829
-16.8258
-20.9444
-25.93
-31.3991
-36.8856
-41.8952
-45.9638
-48.7101
-49.8781
-49.3631
-47.2188
-43.6459
-38.9638
-33.5704
-27.895
-22.3512
-17.2955
-12.9952
-9.61061
-7.19012
-5.67926
-4.94017
-4.77827
-4.97183
-5.30063
-5.57017
-5.62919
-5.37955
-4.77863
-3.83558
-2.6031
-1.16688
0.365737
1.87689
3.24861
4.37268
5.16004
5.54966
5.51644
5.0772
4.29345
3.27016
2.14939
1.09911
0.297742
-0.0840231
0.0980596
0.944788
2.5005
4.74579
7.59686
10.9117
14.5024
18.1513
21.6311
24.7237
27.2385
29.0272
29.9937
30.0994
29.3625
27.8538
25.688
23.0123
19.9936
16.8056
13.616
10.5749
7.8061
5.40017
3.41112
1.85573
0.716145
-0.0549529
-0.526821
-0.781664
-0.904941
-0.975958
-1.0597
-1.20078
-1.42016
-1.7149
-2.06104
-2.41906
-2.74113
-2.97924
-3.093
-3.05605
-2.86028
-2.51726
-2.05675
-1.52265
-0.967023
-0.44294
0.0025191
0.334363
0.53394
0.600872
0.552495
0.420992
0.248684
0.0821493
-0.034037
-0.0631964
0.0186296
0.219426
0.529833
0.923748
1.36079
1.79033
2.15668
2.40491
2.4865
2.36446
2.01687
1.43865
0.641209
-0.350022
-1.49956
-2.7667
-4.11017
-5.4918
-6.87832
-8.24102
-9.55339
-10.7875
-11.9101
-12.8802
-13.6484
-14.1608
-14.3647
-14.2185
-13.7016
-12.8239
-11.6329
-10.2146
-8.68959
-7.20145
-5.90057
-4.92374
-4.37314
-4.29798
-4.68205
-5.43999
-6.42391
-7.44037
-8.27618
-8.72954
-8.64209
-7.92681
-6.58686
-4.72174
-2.51887
-0.231137
1.8568
3.46857
4.3766
4.4367
3.61159
1.9797
-0.27205
-2.87024
-5.48841
-7.78703
-9.45436
-10.2427
-9.9953
-8.66128
-6.29658
-3.05243
0.8471
5.13453
9.5316
13.7807
17.6714
21.0594
23.8764
26.1293
27.8917
29.287
30.4677
31.5925
32.8039
34.2101
35.8717
37.7949
39.9319
42.1877
44.4317
46.5137
48.2813
49.5969
50.3524
50.4808
49.9618
48.8232
47.1363
45.0073
42.5651
39.9482
37.2902
34.7073
32.2883
30.0869
28.1173
26.3538
24.7317
23.1518
21.488
19.5965
17.3283
14.544
11.1288
7.00847
2.16163
-3.3708
-9.48282
-16.0074
-22.7273
-29.3934
-35.7457
-41.538
-46.5601
-50.6558
-53.7341
-55.7719
-56.8075
-56.9272
-56.2462
-54.8875
-52.9602
-50.5398
-47.6484
-44.2323
-40.1318
-35.0398
-28.4478
-19.5835
-7.35576
9.67197
33.2513
65.3331
107.848
162.386
229.802
309.801
400.587
498.653
598.795
694.384
777.909
841.738
878.997
884.459
855.302
791.618
696.592
576.301
439.171
295.125
154.563
27.2817
-78.523
-157.044
-205.36
-223.584
-214.666
-183.886
-138.123
-84.9889
-31.953
14.4537
49.253
69.405
73.9348
63.8092
41.6023
11.0086
-23.7234
-58.3617
-89.1971
-113.432
-129.416
-136.717
-136.031
-128.964
-117.721
-104.747
-92.3733
-82.5118
-76.4278
-74.6209
-76.8146
-82.0517
-88.8723
-95.5475
-100.332
-101.704
-98.5529
-90.3092
-76.9865
-59.1482
-37.8054
-14.2644
10.0497
33.7688
55.7343
75.1075
91.4278
104.618
114.939
122.91
129.208
134.562
139.657
145.064
151.2
158.314
166.499
175.731
185.902
196.862
208.45
220.504
232.862
245.348
257.746
269.771
281.056
291.138
299.467
305.434
308.413
307.814
303.147
294.081
280.49
262.494
240.467
215.029
187.01
157.401
127.283
97.7515
69.8377
44.4395
22.2619
3.7774
-10.7933
-21.4791
-28.5349
-32.4021
-33.656
-32.9471
-30.942
-28.2695
-25.476
-22.9949
-21.1295
-20.0508
-19.8085
-20.3516
-21.5562
-23.2557
-25.2705
-27.4345
-29.6139
-31.7196
-33.7101
-35.586
-37.3773
-39.1266
-40.8689
-42.6139
-44.3315
-45.9449
-47.3313
-48.3316
-48.7662
-48.4571
-47.2509
-45.0401
-41.7811
-37.5036
-32.3134
-26.3849
-19.9481
-13.2677
-6.6206
-0.271822
5.54751
10.658
14.9442
18.3604
20.929
22.7337
23.9061
24.6098
25.0222
25.3163
25.6448
26.1274
26.8427
27.825
29.0653
30.5177
32.1074
33.7411
35.3175
36.7371
37.9092
38.758
39.2253
39.2709
38.8725
38.0234
36.7306
35.012
32.8948
30.4138
27.6095
24.5268
21.2125
17.7139
14.0759
10.3391
6.53812
2.70187
-1.14587
-4.9837
-8.78901
-12.5337
-16.1803
-19.6786
-22.9648
-25.9621
-28.5841
-30.7405
-32.3444
-33.3207
-33.6151
-33.2021
-32.092
-30.3349
-28.0223
-25.2841
-22.2826
-19.2024
-16.2376
-13.5771
-11.3896
-9.80908
-8.92326
-8.76547
-9.31123
-10.4799
-12.1412
-14.1267
-16.2437
-18.2919
-20.08
-21.4406
-22.2432
-22.4025
-21.8819
-20.6933
-18.8901
-16.5588
-13.8055
-10.7429
-7.47634
-4.09191
-0.648198
2.82798
6.34055
9.91799
13.6029
17.4385
21.455
25.6568
30.0139
34.4586
38.8881
43.1729
47.1698
50.7372
53.7509
56.1168
57.7806
58.731
58.9977
58.6448
57.7598
56.4412
54.7866
52.8818
50.7937
48.5668
46.2234
43.7664
41.1849
38.4604
35.5725
32.5038
29.2435
25.7887
22.1445
18.3223
14.3384
10.2114
5.96085
1.6062
-2.83336
-7.33815
-11.8865
-16.4522
-21.002
-25.4918
-29.8639
-34.0442
-37.9412
-41.4468
-44.44
-46.7927
-48.3791
-49.0871
-48.8315
-47.568
-45.3058
-42.1181
-38.1486
-33.6115
-28.7838
-23.9878
-19.5593
-15.8004
-12.9122
-10.9077
-9.50827
-8.03643
-5.32423
0.332898
11.1442
29.6842
58.6295
100.379
156.591
227.705
312.531
407.986
509.077
609.15
700.429
774.783
824.637
843.911
828.839
778.556
695.36
584.601
454.188
313.8
173.879
44.5378
-65.4729
-149.62
-204.165
-228.399
-224.535
-197.273
-153.118
-99.5483
-44.1278
6.30919
46.3298
72.354
82.8554
78.3097
60.9195
34.1675
2.26762
-30.4116
-59.8817
-82.9674
-97.596
-102.925
-99.3091
-88.1222
-71.4815
-51.9061
-31.9658
-13.961
0.328633
9.80508
14.1107
13.5894
9.16539
2.1643
-5.8957
-13.5122
-19.3809
-22.532
-22.4084
-18.8835
-12.2219
-2.99661
8.02379
19.9978
32.1281
43.7583
54.438
63.9541
72.325
79.7659
86.6314
93.3451
100.328
107.936
116.404
125.822
136.116
147.062
158.304
169.39
179.813
189.052
196.612
202.06
205.052
205.353
202.842
197.521
189.498
178.979
166.245
151.636
135.522
118.289
100.314
81.9526
63.517
45.272
27.4287
10.1469
-6.45638
-22.2942
-37.2955
-51.3905
-64.5011
-76.5356
-87.3907
-96.9589
-105.142
-111.864
-117.09
-120.833
-123.162
-124.203
-124.129
-123.147
-121.483
-119.36
-116.981
-114.518
-112.096
-109.794
-107.647
-105.651
-103.773
-101.963
-100.166
-98.3271
-96.4017
-94.3543
-92.1601
-89.8017
-87.2662
-84.5409
-81.6115
-78.461
-75.071
-71.4245
-67.5096
-63.3237
-58.8771
-54.1946
-49.3162
-44.296
-39.1997
-34.101
-29.0787
-24.2126
-19.5812
-15.2581
-11.3103
-7.79528
-4.75871
-2.2321
-0.230478
1.24943
2.23018
2.75352
2.87892
2.68077
2.24427
1.66035
1.02005
0.408796
-0.098966
-0.444313
-0.587321
-0.509182
-0.212857
0.277776
0.920211
1.65689
2.41981
3.13593
3.73299
4.14537
4.31974
4.21999
3.83103
3.1612
2.24269
1.13002
-0.103673
-1.37234
-2.58426
-3.65022
-4.49183
-5.04906
-5.28608
-5.19484
-4.7957
-4.13519
-3.28102
-2.31489
-1.32401
-0.392232
0.408065
1.0226
1.4195
1.59094
1.55209
1.33762
0.99629
0.584458
0.159225
-0.227885
-0.53605
-0.738581
-0.824402
-0.797578
-0.675139
-0.483597
-0.254721
-0.0211219
0.1878
0.349144
0.448782
0.482571
0.456633
0.386919
0.298321
0.223511
0.201561
0.27628
0.494141
0.901643
1.54211
2.4521
3.65787
5.17235
6.99342
9.10389
11.4736
14.0638
16.8331
19.7445
22.7729
25.91
29.1676
32.5763
36.1804
40.0285
44.1618
48.6012
53.3352
58.3117
63.4333
68.5594
73.5121
78.089
82.0782
85.2758
87.5042
88.6277
88.5656
87.2995
84.8763
81.4037
77.0418
71.9888
66.4643
60.6908
54.876
49.1963
43.7839
38.718
34.021
29.6583
25.5443
21.551
17.5222
13.2903
8.69526
3.6052
-2.0649
-8.33795
-15.1654
-22.4253
-29.9296
-37.438
-44.6796
-51.3774
-57.2737
-62.1519
-65.8528
-68.2832
-69.4157
-69.2789
-67.9398
-65.4755
-61.9345
-57.285
-51.3484
-43.7221
-33.6998
-20.2093
-1.7917
23.3448
57.1737
101.588
158.041
227.13
308.19
398.982
495.552
592.335
682.515
758.643
813.43
840.628
835.866
797.314
726.079
626.248
504.573
369.829
231.911
100.799
-14.4744
-106.746
-171.391
-206.691
-213.854
-196.696
-161.055
-114.002
-62.9764
-14.9381
24.3588
50.8895
62.6377
59.6154
43.643
17.9366
-13.4307
-46.1155
-76.0663
-99.9913
-115.687
-122.195
-119.796
-109.837
-94.4505
-76.2021
-57.7132
-41.3196
-28.7986
-21.1966
-18.7681
-21.0234
-26.8687
-34.81
-43.1869
-50.4038
-55.1263
-56.4204
-53.8237
-47.3459
-37.4074
-24.7334
-10.2219
5.19194
20.6573
35.5009
49.2831
61.817
73.1517
83.5297
93.3264
102.983
112.944
123.594
135.221
147.985
161.9
176.841
192.55
208.658
224.719
240.24
254.72
267.68
278.697
287.424
293.598
297.046
297.671
295.431
290.327
282.375
271.6
258.033
241.728
222.784
201.381
177.816
152.528
126.116
99.328
73.029
48.1477
25.6018
6.21643
-9.35823
-20.7154
-27.7388
-30.6198
-29.8418
-26.1339
-20.3976
-13.6172
-6.76386
-0.705399
3.86828
6.49528
6.96351
5.30338
1.75463
-3.28624
-9.32972
-15.8592
-22.3907
-28.5205
-33.9557
-38.5268
-42.184
-44.9776
-47.0304
-48.5026
-49.5578
-50.3323
-50.9119
-51.3187
-51.5092
-51.3826
-50.7986
-49.6021
-47.6503
-44.8408
-41.1339
-36.5698
-31.2756
-25.4623
-19.4126
-13.4609
-7.96672
-3.28517
0.264986
2.43465
3.08055
2.20605
0.00860661
-3.06595
-6.26558
-8.48002
-8.21018
-3.58111
7.57741
27.5625
58.5341
102.169
159.27
229.389
310.539
399.074
489.782
576.225
651.307
708.011
740.216
743.477
715.654
657.299
571.731
464.773
344.196
218.911
98.0403
-10.035
-98.5202
-162.848
-201.043
-213.772
-204.099
-176.973
-138.542
-95.3755
-53.7006
-18.7348
5.80401
17.9714
17.6351
6.2943
-13.2799
-37.5248
-62.6181
-84.9905
-101.759
-111.03
-112.055
-105.217
-91.8817
-74.1274
-54.4144
-35.2285
-18.7557
-6.6222
0.269503
1.797
-1.43074
-8.21141
-16.9502
-25.8909
-33.3453
-37.8892
-38.5055
-34.6593
-26.3055
-13.8338
2.0315
20.3591
40.1446
60.4313
80.4056
99.4562
117.196
133.449
148.216
161.611
173.813
185
195.314
204.829
213.55
221.412
228.308
234.106
238.68
241.923
243.764
244.166
243.118
240.621
236.672
231.247
224.291
215.718
205.416
193.266
179.167
163.069
145.003
125.115
103.682
81.1272
58.0037
34.9768
12.7817
-7.82775
-26.1376
-41.533
-53.5516
-61.925
-66.6042
-67.7654
-65.7952
-61.2584
-54.8486
-47.3305
-39.4756
-32.0002
-25.5096
-20.4535
-17.0966
-15.5064
-15.5589
-16.9632
-19.2999
-22.0726
-24.7647
-26.8969
-28.0786
-28.0475
-26.6941
-24.0674
-20.362
-15.89
-11.04
-6.22946
-1.8561
1.74507
4.33547
5.79305
6.11775
5.42262
3.91282
1.85591
-0.452332
-2.72211
-4.70002
-6.19249
-7.08026
-7.32317
-6.95584
-6.0754
-4.82379
-3.36699
-1.8739
-0.497294
0.641274
1.46129
1.92735
2.04765
1.86774
1.4607
0.915521
0.325065
-0.224758
-0.663479
-0.941489
-1.03212
-0.930632
-0.650684
-0.219154
0.329805
0.960625
1.64138
2.34751
3.06382
3.78453
4.51134
5.24973
6.00379
6.77043
7.53359
8.25964
8.89488
9.36625
9.58579
9.45924
8.89817
7.83437
6.23463
4.1134
1.54099
-1.35488
-4.39524
-7.36391
-10.0283
-12.1647
-13.5848
-14.16
-13.8395
-12.6601
-10.7445
-8.28879
-5.53987
-2.7654
-0.220256
1.88572
3.41418
4.31502
4.63082
4.4881
4.07674
3.62028
3.34149
3.42817
4.00416
5.10949
6.6926
8.61539
10.6704
12.6074
14.166
15.1091
15.2543
14.4976
12.8278
10.3304
7.17908
3.61897
-0.0589652
-3.54705
-6.5512
-8.81862
-10.1604
-10.467
-9.71554
-7.96904
-5.36888
-2.121
1.52198
5.28114
8.87269
12.0287
14.5163
16.1531
16.8189
16.4626
15.103
12.8248
9.76941
6.12174
2.09454
-2.08852
-6.20917
-10.0689
-13.5
-16.3734
-18.6011
-20.1361
-20.9678
-21.115
-20.6178
-19.5287
-17.906
-15.8092
-13.2983
-10.4367
-7.29756
-3.97086
-0.57046
2.76234
5.86012
8.53701
10.6029
11.8828
12.2392
11.5948
9.95057
7.39817
4.12236
0.393194
-3.452
-7.03516
-9.96957
-11.8938
-12.5036
-11.578
-8.99795
-4.7539
1.05526
8.23305
16.5032
25.5324
34.9554
44.4008
53.5148
61.9816
69.54
75.9944
81.2205
85.1647
87.8385
89.308
89.6803
89.088
87.6738
85.5776
82.9265
79.83
76.3786
72.6475
68.7022
64.6059
60.4262
56.2403
52.1363
48.2105
44.5607
41.2755
38.4215
36.029
34.0802
32.4999
31.1521
29.8447
28.3412
26.381
23.7057
20.0891
15.3669
9.46301
2.40715
-5.65739
-14.4786
-23.7127
-32.9509
-41.7535
-49.6867
-56.3578
-61.446
-64.7251
-66.0773
-65.4978
-63.0903
-59.0529
-53.6534
-47.1911
-39.9415
-32.0816
-23.5964
-14.1758
-3.11774
10.7353
28.9967
53.6416
86.8008
130.443
185.972
253.792
332.919
420.71
512.796
603.256
685.062
750.735
793.177
806.541
787.03
733.515
647.845
534.821
401.795
257.96
113.404
-21.9415
-139.323
-232.031
-296.004
-330.099
-336.021
-317.935
-281.824
-234.695
-183.738
-135.536
-95.4271
-67.0652
-52.2264
-50.8455
-61.2609
-80.6139
-105.337
-131.664
-156.099
-175.792
-188.787
-194.139
-191.882
-182.899
-168.688
-151.106
-132.086
-113.395
-96.4378
-82.1425
-70.9115
-62.6523
-56.8643
-52.766
-49.4403
-45.9768
-41.5945
-35.7311
-28.0924
-18.661
-7.6696
4.45572
17.169
29.8857
42.0608
53.2552
63.1837
71.7417
79.0096
85.2368
90.8083
96.2004
101.928
108.493
116.33
125.764
136.976
149.976
164.599
180.507
197.21
214.096
230.475
245.624
258.843
269.499
277.074
281.2
281.677
278.484
271.761
261.791
248.958
233.705
216.499
197.792
178.002
157.509
136.657
115.77
95.1703
75.1904
56.1825
38.5113
22.5376
8.592
-3.05788
-12.2393
-18.9007
-23.1276
-25.1435
-25.2961
-24.0292
-21.8434
-19.2512
-16.7308
-14.685
-13.4097
-13.0746
-13.7185
-15.2581
-17.5094
-20.2175
-23.0918
-25.8414
-28.2077
-29.99
-31.0625
-31.3817
-30.9839
-29.9741
-28.5095
-26.7774
-24.9735
-23.2802
-21.8478
-20.781
-20.1305
-19.8907
-20.0035
-20.3676
-20.8513
-21.3088
-21.5959
-21.5854
-21.1789
-20.3156
-18.9747
-17.1749
-14.9684
-12.4324
-9.65877
-6.74324
-3.77545
-0.831085
2.03341
4.7832
7.40437
9.9003
12.2855
14.5777
16.7885
18.9148
20.9313
22.7864
24.4013
25.6742
26.488
26.722
26.2646
25.0271
22.9559
20.0413
16.3229
11.8897
6.87677
1.45698
-4.16932
-9.78665
-15.1771
-20.1324
-24.4651
-28.0172
-30.6678
-32.3378
-32.9933
-32.6465
-31.3552
-29.2197
-26.3779
-22.998
-19.2689
-15.3896
-11.5566
-7.9515
-4.729
-2.00695
0.141174
1.68994
2.66148
3.12052
3.1654
2.91584
2.49876
2.03394
1.62095
1.32924
1.1924
1.20731
1.33817
1.52481
1.69387
1.77157
1.69586
1.42666
0.952529
0.293146
-0.502765
-1.36342
-2.20287
-2.93121
-3.46449
-3.7328
-3.68556
-3.2935
-2.54778
-1.45682
-0.0421128
1.6659
3.63094
5.81248
8.16578
10.6409
13.1811
15.7228
18.1954
20.5246
22.6367
24.4648
25.955
27.0732
27.8096
28.1818
28.234
28.0336
27.6658
27.2245
26.804
26.4894
26.3498
26.4327
26.762
27.3382
28.1419
29.1382
30.2824
31.5254
32.8179
34.1135
35.3705
36.5518
37.6254
38.562
39.3339
39.9111
40.2572
40.3233
40.0429
39.3269
38.0633
36.1213
33.3622
29.657
24.9086
19.0771
12.202
4.41992
-4.02929
-12.8087
-21.5044
-29.659
-36.8132
-42.5529
-46.5534
-48.6162
-48.6923
-46.8889
-43.4585
-38.7714
-33.2764
-27.454
-21.7687
-16.6249
-12.3289
-9.0564
-6.82021
-5.43369
-4.46453
-3.17969
-0.4904
5.08434
15.4087
32.6465
59.0787
96.8164
147.425
211.504
288.297
375.406
468.698
562.456
649.792
723.29
775.821
801.402
795.988
758.074
689.014
592.998
476.686
348.546
217.969
94.2936
-14.159
-100.896
-161.837
-195.591
-203.43
-188.949
-157.5
-115.469
-69.487
-25.6873
10.9164
36.8647
50.4644
51.7729
42.3787
25.0224
3.12158
-19.7362
-40.2658
-55.869
-64.8928
-66.7407
-61.8393
-51.4755
-37.539
-22.2119
-7.65004
4.30134
12.322
15.7409
14.5603
9.38861
1.29741
-8.36752
-18.192
-26.8845
-33.4281
-37.1748
-37.8762
-35.6516
-30.9069
-24.2208
-16.2199
-7.46375
1.64361
10.9043
20.3345
30.1338
40.6233
52.1666
65.0861
79.5907
95.7234
113.337
132.099
151.525
171.03
189.991
207.817
224.004
238.176
250.112
259.738
267.11
272.373
275.711
277.293
277.228
275.527
272.089
266.706
259.088
248.913
235.887
219.808
200.633
178.531
153.908
127.414
99.9135
72.4311
46.0687
21.9109
0.925531
-16.1287
-28.7754
-36.8654
-40.5884
-40.4486
-37.2094
-31.8117
-25.277
-18.6058
-12.6846
-8.20862
-5.63147
-5.14335
-6.6796
-9.95608
-14.5254
-19.8454
-25.3517
-30.5246
-34.9429
-38.3209
-40.5237
-41.563
-41.5747
-40.7837
-39.4615
-37.8824
-36.2849
-34.8416
-33.6424
-32.6898
-31.9085
-31.1636
-30.2872
-29.1062
-27.4698
-25.2704
-22.4579
-19.0446
-15.1009
-10.7455
-6.12967
-1.42071
3.21362
7.61767
11.6565
15.2212
18.2347
20.6603
22.5216
23.9368
25.171
26.7051
29.3112
34.1157
42.625
56.6833
78.3381
109.602
152.119
206.773
273.3
349.97
433.437
518.795
599.885
669.838
721.803
749.761
749.315
718.346
657.41
569.836
461.478
340.156
214.85
94.7543
-11.6878
-97.6521
-158.59
-192.608
-200.521
-185.605
-153.077
-109.388
-61.4245
-15.7179
22.2435
48.5248
61.0311
59.5537
45.5913
21.9865
-7.56131
-39.0365
-68.6306
-93.1856
-110.51
-119.545
-120.363
-114.039
-102.39
-87.6656
-72.2027
-58.112
-47.024
-39.9232
-37.0824
-38.096
-41.9957
-47.4272
-52.8569
-56.7808
-57.9078
-55.298
-48.443
-37.286
-22.1854
-3.83313
16.8575
38.8764
61.2385
83.0872
103.77
122.88
140.26
155.975
170.26
183.448
195.899
207.922
219.727
231.377
242.784
253.709
263.795
272.607
279.679
284.563
286.869
286.295
282.644
275.834
265.893
252.955
237.249
219.087
198.855
177.001
154.027
130.467
106.874
83.7969
61.7525
41.2016
22.5209
5.98147
-8.26719
-20.2029
-29.9261
-37.6443
-43.6463
-48.2699
-51.8653
-54.7594
-57.2252
-59.4589
-61.5683
-63.5726
-65.4134
-66.9758
-68.1139
-68.6798
-68.5501
-67.6468
-65.9505
-63.5046
-60.4102
-56.8136
-52.8889
-48.818
-44.7712
-40.8917
-37.284
-34.009
-31.0847
-28.4924
-26.1861
-24.1049
-22.1839
-20.3652
-18.6049
-16.8769
-15.1734
-13.5019
-11.8801
-10.3302
-8.8732
-7.5241
-6.28968
-5.16795
-4.14966
-3.22099
-2.36691
-1.57405
-0.8327
-0.137369
0.514081
1.12247
1.68997
2.22263
2.73215
3.23626
3.7573
4.3192
4.94306
5.64199
6.4162
7.24911
8.10531
8.93079
9.65573
10.1996
10.4784
10.4137
9.94299
9.03087
7.67946
5.93715
3.90329
1.72716
-0.400343
-2.26266
-3.64048
-4.3394
-4.21882
-3.21786
-1.37377
1.17106
4.17608
7.32411
10.2558
12.613
14.0847
14.4499
13.6094
11.6019
8.60058
4.89076
0.830523
-3.19922
-6.84764
-9.84136
-12.0185
-13.3438
-13.9032
-13.8789
-13.5096
-13.0445
-12.6976
-12.6109
-12.8322
-13.3107
-13.9095
-14.4333
-14.6655
-14.4076
-13.5157
-11.9271
-9.67457
-6.88438
-3.76139
-0.561851
2.44042
4.98969
6.88051
7.98192
8.25063
7.73204
6.54963
4.88522
2.95399
0.978522
-0.834008
-2.30827
-3.30941
-3.74407
-3.55541
-2.71504
-1.21471
0.939356
3.72773
7.11396
11.0365
15.3982
20.0568
24.819
29.4408
33.6375
37.1011
39.5262
40.6398
40.2323
38.1852
34.4904
29.2596
22.7214
15.205
7.11384
-1.10916
-9.02068
-16.2154
-22.3596
-27.2174
-30.6645
-32.6916
-33.3945
-32.9551
-31.6143
-29.6415
-27.3039
-24.8394
-22.4363
-20.2207
-18.2537
-16.5362
-15.0211
-13.6293
-12.2681
-10.8481
-9.29691
-7.56866
-5.64784
-3.54847
-1.30908
1.01502
3.36055
5.66482
7.87277
9.94165
11.8432
13.5633
15.1
16.4597
17.6539
18.6955
19.596
20.3641
21.0053
21.5218
21.9143
22.1823
22.3258
22.3448
22.2402
22.0123
21.6599
21.1801
20.5671
19.8133
18.91
17.8498
16.6294
15.2521
13.7309
12.0897
10.3636
8.59792
6.84529
5.16146
3.60051
2.20961
1.02397
0.0623498
-0.676881
-1.21903
-1.61598
-1.94861
-2.32814
-2.8955
-3.81732
-5.2775
-7.46367
-10.5491
-14.6718
-19.9129
-26.2787
-33.6883
-41.9701
-50.8686
-60.0609
-69.1823
-77.8562
-85.7261
-92.485
-97.8978
-101.815
-104.175
-104.997
-104.36
-102.372
-99.1333
-94.6742
-88.8926
-81.473
-71.807
-58.9257
-41.4698
-17.723
14.265
56.4525
110.481
177.28
256.661
346.968
444.874
545.381
642.077
727.645
794.583
836.05
846.719
823.525
766.181
677.38
562.653
429.877
288.499
148.571
19.719
-89.8244
-174.011
-229.493
-255.822
-255.308
-232.582
-193.932
-146.487
-97.3812
-52.9748
-18.2329
3.68403
11.5843
6.16525
-10.279
-34.3094
-61.8856
-88.9265
-111.821
-127.829
-135.34
-133.963
-124.465
-108.561
-88.6194
-67.3037
-47.2113
-30.5539
-18.9114
-13.085
-13.0595
-18.0695
-26.753
-37.3661
-48.0271
-56.9569
-62.686
-64.2051
-61.0443
-53.2789
-41.4658
-26.5262
-9.59362
8.14819
25.6176
41.9574
56.614
69.3694
80.3242
89.8423
98.4655
106.816
115.496
125.007
135.681
147.65
160.842
174.994
189.7
204.466
218.761
232.079
243.982
254.131
262.298
268.367
272.319
274.208
274.127
272.187
268.484
263.088
256.031
247.313
236.914
224.81
210.997
195.515
178.471
160.052
140.54
120.306
99.8084
79.568
60.1424
42.089
25.9244
12.0839
0.884913
-7.50212
-13.0696
-15.9748
-16.5267
-15.1582
-12.3868
-8.76764
-4.84509
-1.10613
2.05765
4.37646
5.71467
6.06835
5.54927
4.35792
2.74947
0.997024
-0.643307
-1.96169
-2.81517
-3.13798
-2.94129
-2.30358
-1.35368
-0.249862
0.841888
1.76699
2.39636
2.63416
2.41909
1.72051
0.531397
-1.13941
-3.2735
-5.84607
-8.82538
-12.1688
-15.8168
-19.6862
-23.6649
-27.6103
-31.3509
-34.6942
-37.4378
-39.3855
-40.3639
-40.2405
-38.9378
-36.4448
-32.821
-28.1951
-22.7561
-16.738
-10.4016
-4.01259
2.17908
7.95707
13.1517
17.6466
21.3788
24.3326
26.5289
28.0119
28.836
29.0545
28.7113
27.8378
26.4538
24.5725
22.207
19.3791
16.1259
12.5052
8.59822
4.50808
0.356149
-3.72492
-7.59975
-11.1396
-14.2313
-16.785
-18.7393
-20.0645
-20.7626
-20.8654
-20.4309
-19.5388
-18.2857
-16.7808
-15.1417
-13.4899
-11.9457
-10.6218
-9.61545
-8.99875
-8.80907
-9.04058
-9.63919
-10.5026
-11.4871
-12.4206
-13.1222
-13.425
-13.1997
-12.3753
-10.9542
-9.01748
-6.72169
-4.28423
-1.96084
-0.0169535
1.30333
1.80685
1.37588
-0.0154732
-2.29504
-5.29715
-8.77752
-12.4367
-15.9496
-18.9971
-21.2973
-22.6314
-22.8629
-21.9472
-19.9305
-16.9399
-13.1657
-8.83895
-4.2073
0.487016
5.02525
9.22429
12.9423
16.0789
18.5705
20.3841
21.51
21.9572
21.751
20.9345
19.5724
17.7566
15.6102
13.2898
10.9822
8.89654
7.25019
6.25098
6.07661
6.85445
8.64405
11.4253
15.0935
19.4635
24.2812
29.2436
34.0225
38.2926
41.7569
44.1699
45.3528
45.2018
43.6868
40.8438
36.7615
31.5669
25.4108
18.4573
10.8772
2.84723
-5.4482
-13.8118
-22.029
-29.866
-37.0719
-43.3865
-48.5545
-52.3436
-54.568
-55.1115
-53.9497
-51.1666
-46.9633
-41.6546
-35.6525
-29.434
-23.4908
-18.2617
-14.0463
-10.9029
-8.54027
-6.21473
-2.65813
3.93762
15.849
35.6404
65.8667
108.677
165.362
235.909
318.654
410.103
505.002
596.657
677.53
740.019
777.345
784.415
758.547
699.929
611.754
499.995
372.831
239.812
110.853
-4.80534
-99.5439
-168.103
-208.026
-219.77
-206.481
-173.473
-127.498
-75.9081
-25.797
16.7499
47.2363
63.1011
63.8124
50.7171
26.6862
-4.38403
-38.1431
-70.354
-97.39
-116.608
-126.563
-127.058
-119.036
-104.34
-85.3903
-64.8262
-45.1519
-28.4395
-16.1148
-8.84581
-6.53709
-8.42105
-13.2239
-19.3793
-25.2572
-29.3789
-30.5907
-28.1792
-21.9194
-12.0532
0.789726
15.7159
31.7144
47.8062
63.1734
77.2552
89.7977
100.855
110.748
119.982
129.156
138.851
149.543
161.53
174.89
189.48
204.954
220.819
236.495
251.388
264.957
276.762
286.494
293.984
299.181
302.114
302.848
301.428
297.839
291.973
283.632
272.551
258.447
241.093
220.394
196.464
169.683
140.718
110.512
80.2257
51.149
24.5808
1.6997
-16.5605
-29.6132
-37.2851
-39.838
-37.9414
-32.6003
-25.0469
-16.6104
-8.57968
-2.07697
2.0444
3.26636
1.43122
-3.27463
-10.3737
-19.1776
-28.8826
-38.6679
-47.7846
-55.6258
-61.7717
-66.0077
-68.316
-68.8457
-67.8677
-65.7225
-62.7673
-59.3307
-55.6789
-51.996
-48.3791
-44.8478
-41.3629
-37.8519
-34.2369
-30.459
-26.4979
-22.3824
-18.1909
-14.044
-10.0873
-6.47084
-3.32575
-0.743159
1.2423
2.66201
3.61565
4.2681
4.8452
5.63482
6.99991
9.40816
13.4775
20.0287
30.1278
45.0929
66.4394
95.7426
134.409
183.376
242.767
311.581
387.462
466.639
544.07
613.802
669.543
705.359
716.417
699.669
654.354
582.256
487.657
376.977
258.151
139.813
30.3919
-62.7634
-134.118
-180.461
-201.138
-197.973
-174.928
-137.528
-92.1546
-45.2849
-2.78441
30.6797
52.0354
59.9847
54.9606
38.888
14.7928
-13.6769
-42.7544
-69.0176
-89.7604
-103.238
-108.767
-106.683
-98.1824
-85.0691
-69.4585
-53.4746
-38.9808
-27.3737
-19.4595
-15.418
-14.8502
-16.8932
-20.3797
-24.0184
-26.5688
-26.9907
-24.5512
-18.8828
-9.98986
1.79167
15.8697
31.4953
47.8702
64.2492
80.0252
94.7875
108.349
120.74
132.171
142.978
153.543
164.226
175.292
186.858
198.869
211.087
223.117
234.446
244.498
252.689
258.489
261.461
261.292
257.808
250.964
240.835
227.593
211.484
192.817
171.947
149.272
125.235
100.325
75.0699
50.0348
25.8022
2.94767
-17.9916
-36.5522
-52.3793
-65.2544
-75.114
-82.0545
-86.3217
-88.2863
-88.4072
-87.1871
-85.1248
-82.6704
-80.1867
-77.9236
-76.0046
-74.4279
-73.0817
-71.7696
-70.2436
-68.2418
-65.5252
-61.91
-57.2937
-51.6707
-45.1367
-37.8823
-30.1755
-22.3373
-14.7102
-7.62651
-1.3777
3.81125
7.79948
10.5386
12.0714
12.5209
12.0723
10.9496
9.39017
7.62031
5.834
4.17754
2.74088
1.55617
0.602897
-0.181514
-0.88737
-1.61667
-2.46727
-3.51902
-4.82315
-6.39581
-8.21577
-10.2263
-12.34
-14.4467
-16.4224
-18.139
-19.475
-20.3247
-20.6075
-20.2756
-19.3191
-17.7691
-15.6966
-13.2079
-10.4357
-7.52725
-4.62969
-1.87509
0.633276
2.83147
4.7005
6.26621
7.59323
8.77372
9.91258
11.1111
12.4514
13.9842
15.7207
17.6308
19.6461
21.6696
23.5872
25.2824
26.6502
27.6096
28.1123
28.1465
27.7372
26.9414
25.8399
24.5268
23.0986
21.6432
20.2312
18.9095
17.6984
16.5927
15.5652
14.5738
13.5689
12.5028
11.3372
10.0504
8.64119
7.13089
5.56191
3.9943
2.50002
1.15582
0.0356501
-0.796921
-1.29536
-1.43555
-1.21938
-0.67652
0.135952
1.13591
2.22058
3.27287
4.16937
4.78967
5.02627
4.79445
4.04093
2.75045
0.94927
-1.29503
-3.87779
-6.66536
-9.50641
-12.2454
-14.7369
-16.8586
-18.5227
-19.6828
-20.3372
-20.5261
-20.3259
-19.8385
-19.1795
-18.4656
-17.8023
-17.2753
-16.9447
-16.8429
-16.9771
-17.3345
-17.8895
-18.6116
-19.4725
-20.4515
-21.5374
-22.7279
-24.0259
-25.4337
-26.9458
-28.5418
-30.1812
-31.8
-33.3106
-34.6056
-35.5645
-36.0637
-35.9883
-35.2449
-33.7741
-31.5606
-28.64
-25.1016
-21.085
-16.7718
-12.3721
-8.10773
-4.19253
-0.813632
1.88561
3.81886
4.96501
5.37126
5.15111
4.47809
3.57582
2.70503
2.14798
2.1905
3.10257
5.11801
8.4151
13.0997
19.1929
26.625
35.2363
44.786
54.968
65.4315
75.8052
85.7229
94.8468
102.888
109.622
114.897
118.64
120.85
121.595
120.998
119.222
116.458
112.904
108.757
104.198
99.3832
94.4426
89.4746
84.5482
79.7042
74.9581
70.3027
65.7101
61.134
56.5119
51.7697
46.8266
41.6035
36.0326
30.068
23.6961
16.9437
9.8818
2.62505
-4.67485
-11.8404
-18.6834
-25.0214
-30.6938
-35.5762
-39.5903
-42.7094
-44.9593
-46.4144
-47.188
-47.4154
-47.2287
-46.7166
-45.8701
-44.5111
-42.2092
-38.2
-31.3223
-20.0031
-2.3167
23.8586
60.5769
109.468
171.326
245.707
330.611
422.335
515.549
603.636
679.274
735.208
765.108
764.395
730.91
665.321
571.197
454.722
324.097
188.688
58.0412
-59.1091
-155.716
-227.074
-271.174
-288.743
-282.966
-258.947
-222.994
-181.827
-141.795
-108.211
-84.8692
-73.78
-75.142
-87.5306
-108.259
-133.855
-160.574
-184.902
-203.971
-215.849
-219.688
-215.723
-205.138
-189.819
-172.053
-154.204
-138.401
-126.299
-118.902
-116.498
-118.679
-124.45
-132.393
-140.879
-148.279
-153.162
-154.443
-151.485
-144.123
-132.635
-117.66
-100.077
-80.8703
-61.0008
-41.2959
-22.3752
-4.61539
11.846
27.073
41.2714
54.7172
67.6877
80.4025
92.985
105.445
117.683
129.513
140.697
150.988
160.163
168.059
174.589
179.751
183.615
186.31
187.995
188.826
188.93
188.376
187.161
185.194
182.31
178.281
172.848
165.761
156.822
145.927
133.103
118.532
102.556
85.6633
68.4566
51.6044
35.7817
21.6073
9.58575
0.0599574
-6.81895
-11.1016
-13.0292
-13.0026
-11.5367
-9.20435
-6.57794
-4.17442
-2.40968
-1.56692
-1.78126
-3.04137
-5.20646
-8.0358
-11.2266
-14.455
-17.4165
-19.8594
-21.6107
-22.5892
-22.8077
-22.3638
-21.4211
-20.1839
-18.8687
-17.6756
-16.7627
-16.2277
-16.0956
-16.3163
-16.7708
-17.2845
-17.647
-17.6353
-17.0376
-15.6769
-13.4306
-10.2457
-6.14819
-1.24621
4.27464
10.1623
16.1163
21.8107
26.9214
31.1539
34.2702
36.1105
36.6088
35.7988
33.8115
30.8617
27.2277
23.2247
19.1754
15.3808
12.0949
9.50488
7.71897
6.76299
6.58471
7.06535
8.03627
9.29893
10.6457
11.8795
12.831
13.3713
13.4197
12.9469
11.972
10.5565
8.79321
6.79435
4.67765
2.5536
0.514373
-1.37426
-3.07717
-4.59006
-5.93548
-7.15549
-8.30175
-9.42451
-10.5621
-11.7319
-12.9255
-14.1063
-15.213
-16.1664
-16.8792
-17.2679
-17.2647
-16.8276
-15.9474
-14.6508
-12.9987
-11.0814
-9.00977
-6.90595
-4.89352
-3.08903
-1.59557
-0.498717
0.13535
0.260065
-0.152311
-1.11178
-2.61155
-4.6286
-7.12397
-10.0431
-13.3166
-16.8623
-20.588
-24.3964
-28.1906
-31.8796
-35.3838
-38.6374
-41.5884
-44.1942
-46.4141
-48.2008
-49.4918
-50.2045
-50.237
-49.4756
-47.8079
-45.1413
-41.4218
-36.6506
-30.8944
-24.288
-17.026
-9.34625
-1.5058
6.24692
13.6993
20.6971
27.159
33.08
38.5239
43.6061
48.4685
53.2516
58.0673
62.9767
67.9766
72.9948
77.8969
82.5008
86.5991
89.9832
92.468
93.9133
94.2381
93.4278
91.534
88.6662
84.9788
80.654
75.884
70.854
65.7273
60.6346
55.6668
50.8719
46.2566
41.7895
37.4087
33.03
28.5567
23.8899
18.939
13.6321
7.92425
1.80618
-4.69094
-11.493
-18.4842
-25.513
-32.4016
-38.9593
-44.9976
-50.3457
-54.8645
-58.4557
-61.0646
-62.6731
-63.2807
-62.8695
-61.3518
-58.4994
-53.859
-46.6644
-35.7638
-19.5894
3.80204
36.5908
80.943
138.656
210.73
296.939
395.46
502.669
613.156
720.012
815.376
891.199
940.131
956.418
936.676
880.434
790.353
672.087
533.789
385.319
237.255
99.8214
-18.124
-109.932
-171.733
-202.678
-204.838
-182.787
-142.936
-92.7124
-39.6851
9.25343
48.5595
74.4968
85.347
81.3681
64.5296
38.0767
5.99278
-27.566
-58.7929
-84.6504
-103.149
-113.461
-115.883
-111.653
-102.672
-91.1746
-79.3872
-69.227
-62.073
-58.6303
-58.8967
-62.2252
-67.4644
-73.1524
-77.7335
-79.7691
-78.1156
-72.052
-61.344
-46.244
-27.4321
-5.91017
17.1325
40.4648
62.9523
83.6723
101.996
117.632
130.627
141.332
150.334
158.37
166.228
174.65
184.24
195.398
208.279
222.779
238.55
255.045
271.577
287.399
301.777
314.059
323.729
330.443
334.027
334.461
331.844
326.337
318.111
307.307
294.006
278.228
259.953
239.174
215.945
190.453
163.066
134.359
105.118
76.299
48.9638
24.1848
2.94006
-13.9901
-26.1111
-33.273
-35.6928
-33.9362
-28.8603
-21.5264
-13.0905
-4.68872
2.67232
8.20474
11.4007
12.059
10.2769
6.40914
1.00189
-5.28908
-11.7855
-17.868
-23.043
-26.988
-29.5716
-30.8488
-31.0323
-30.4484
-29.4812
-28.5152
-27.8821
-27.82
-28.447
-29.7536
-31.612
-33.8005
-36.039
-38.0294
-39.496
-40.2202
-40.0654
-38.989
-37.0414
-34.3534
-31.1139
-27.5437
-23.8682
-20.2926
-16.9811
-14.0388
-11.4907
-9.2547
-7.10022
-4.59208
-1.02354
4.64783
13.838
28.3186
50.1141
81.2949
123.668
178.392
245.576
323.927
410.545
500.914
589.142
668.445
731.825
772.87
786.549
769.907
722.54
646.778
547.547
431.911
308.357
185.91
73.1917
-22.4645
-95.7248
-143.719
-166.207
-165.438
-145.739
-112.893
-73.3935
-33.6737
0.595613
25.0657
37.0674
35.7434
21.958
-1.98489
-32.7641
-66.5402
-99.4647
-128.137
-149.958
-163.356
-167.855
-164.015
-153.249
-137.552
-119.201
-100.441
-83.2209
-68.9819
-58.5413
-52.0596
-49.0937
-48.7203
-49.706
-50.7006
-50.4262
-47.8407
-42.2557
-33.4006
-21.4271
-6.8589
9.50281
26.704
43.774
59.8562
74.314
86.8029
97.2966
106.07
113.638
120.67
127.875
135.903
145.237
156.135
168.581
182.292
196.75
211.258
225.023
237.232
247.135
254.102
257.668
257.558
253.685
246.136
235.149
221.076
204.346
185.439
164.852
143.08
120.603
97.8818
75.3491
53.415
32.4642
12.8545
-5.08878
-21.0808
-34.8895
-46.3481
-55.3684
-61.9511
-66.1909
-68.2765
-68.4826
-67.154
-64.6844
-61.4888
-57.9746
-54.5127
-51.4121
-48.8999
-47.1096
-46.0777
-45.7497
-45.9927
-46.6151
-47.3892
-48.0742
-48.4386
-48.2776
-47.4261
-45.7663
-43.2306
-39.801
-35.5063
-30.4183
-24.6487
-18.346
-11.6934
-4.90635
1.77046
8.06819
13.7018
18.382
21.8303
23.7988
24.0917
22.5869
19.2559
14.1791
7.55231
-0.315314
-9.01506
-18.0632
-26.935
-35.1056
-42.0933
-47.5007
-51.0495
-52.6039
-52.1805
-49.9424
-46.1789
-41.2724
-35.6576
-29.7769
-24.0375
-18.7765
-14.236
-10.5512
-7.75223
-5.77677
-4.49274
-3.72555
-3.28682
-3.00052
-2.72364
-2.35935
-1.86198
-1.23428
-0.518242
0.218304
0.896969
1.44366
1.80092
1.93646
1.84692
1.55713
1.1153
0.585215
0.0369676
-0.462508
-0.857703
-1.11063
-1.20414
-1.14224
-0.947701
-0.657491
-0.316784
0.0275151
0.332922
0.56651
0.708563
0.754568
0.715617
0.617511
0.498909
0.408795
0.403414
0.542642
0.885734
1.48641
2.38746
3.61515
5.17398
7.04237
9.17001
11.4774
13.8582
16.1846
18.3159
20.1095
21.4341
22.1836
22.29
21.7338
20.5511
18.8344
16.7291
14.4226
12.1294
10.072
8.45948
7.46696
7.21685
7.76503
9.09298
11.1071
13.6456
16.4918
19.3933
22.0848
24.3108
25.848
26.5225
26.2214
24.8982
22.5705
19.3131
15.2476
10.5292
5.33476
-0.147904
-5.72892
-11.2226
-16.4522
-21.2542
-25.4818
-29.0101
-31.7406
-33.6071
-34.5808
-34.6737
-33.9408
-32.4776
-30.4162
-27.9156
-25.1503
-22.2966
-19.5178
-16.9505
-14.6942
-12.8047
-11.2928
-10.1289
-9.25177
-8.58188
-8.03505
-7.53544
-7.02471
-6.46551
-5.8387
-5.13499
-4.34306
-3.43739
-2.36906
-1.06229
0.581651
2.67317
5.31732
8.59395
12.5385
17.127
22.269
27.8084
33.5344
39.201
44.5507
49.3424
53.3766
56.5175
58.7067
59.9684
60.4059
60.1878
59.5278
58.6597
57.81
57.172
56.8843
57.0149
57.554
58.4154
59.446
60.4425
61.1742
61.4068
60.9266
59.561
57.1936
53.7718
49.3075
43.8719
37.5851
30.6022
23.1004
15.2649
7.27873
-0.68604
-8.47327
-15.946
-22.9877
-29.5029
-35.4173
-40.6779
-45.2535
-49.1336
-52.3281
-54.8643
-56.7831
-58.1339
-58.9684
-59.3346
-59.27
-58.7968
-57.9155
-56.5968
-54.7688
-52.2929
-48.9261
-44.2674
-37.6907
-28.2777
-14.7706
4.4284
31.1795
67.4285
114.924
174.844
247.384
331.37
423.987
520.699
615.429
701.003
769.848
814.846
830.241
812.458
760.709
677.271
567.398
438.856
301.131
164.438
38.6238
-67.8528
-148.768
-200.685
-223.169
-218.639
-191.91
-149.492
-98.7433
-47.0007
-0.783435
34.8359
56.6354
63.3954
55.8034
36.15
7.87245
-24.9834
-58.3099
-88.4276
-112.467
-128.608
-136.168
-135.541
-128.016
-115.512
-100.267
-84.5256
-70.2687
-59.0013
-51.6289
-48.4197
-49.0493
-52.7117
-58.2753
-64.4612
-70.0179
-73.8743
-75.2543
-73.7439
-69.3081
-62.2606
-53.1936
-42.8796
-32.1582
-21.8218
-12.5142
-4.65172
1.6243
6.45917
10.2611
13.6457
17.3557
22.1671
28.7917
37.7885
49.4944
63.9807
81.0405
100.207
120.8
141.992
162.894
182.634
200.439
215.699
228.006
237.178
243.248
246.435
247.099
245.681
242.638
238.386
233.254
227.446
221.038
213.98
206.128
197.286
187.259
175.9
163.157
149.107
133.963
118.072
101.891
85.9447
70.7752
56.889
44.7059
34.5181
26.4634
20.5167
16.4986
14.1018
12.93
12.5448
12.5141
12.4569
12.0781
11.1903
9.72117
7.70507
5.26342
2.57556
-0.154236
-2.72924
-4.98785
-6.82311
-8.1924
-9.11679
-9.67134
-9.96857
-10.1381
-10.3057
-10.5752
-11.0144
-11.6487
-12.4599
-13.3924
-14.3641
-15.2789
-16.042
-16.5718
-16.8102
-16.7284
-16.3277
-15.6373
-14.7077
-13.6027
-12.3902
-11.1339
-9.88647
-8.68475
-7.54811
-6.47914
-5.46667
-4.49042
-3.52626
-2.55149
-1.54911
-0.510744
0.56237
1.66008
2.76569
3.85928
4.92157
5.93728
6.89761
7.80137
8.65442
9.46792
10.2554
11.0298
11.8001
12.5699
13.3358
14.0886
14.814
15.4944
16.1095
16.6355
17.0425
17.2905
17.3239
17.0679
16.4273
15.2894
13.5326
11.0395
7.71404
3.50002
-1.60222
-7.52357
-14.1212
-21.1829
-28.4397
-35.5882
-42.3169
-48.3364
-53.4069
-57.3613
-60.1204
-61.6974
-62.1928
-61.7794
-60.6804
-59.1422
-57.4074
-55.6903
-54.1568
-52.9134
-52.0034
-51.4115
-51.0755
-50.9028
-50.7885
-50.6333
-50.3584
-49.9148
-49.2864
-48.4877
-47.5547
-46.5334
-45.4661
-44.3786
-43.2705
-42.1097
-40.8322
-39.3474
-37.5475
-35.3193
-32.5581
-29.1805
-25.1348
-20.41
-15.0398
-9.10382
-2.72478
3.93821
10.6993
17.3584
23.7151
29.5829
34.8038
39.2589
42.8777
45.6409
47.5805
48.7733
49.3312
49.3887
49.0888
48.5688
47.9487
47.322
46.7498
46.2587
45.8428
45.4669
45.073
44.5875
43.9281
43.0117
41.7612
40.1121
38.0181
35.4555
32.4265
28.9602
25.1122
20.9609
16.6021
12.1411
7.68351
3.32573
-0.854391
-4.80461
-8.50272
-11.9574
-15.2056
-18.3059
-21.3302
-24.3533
-27.4421
-30.6462
-33.99
-37.468
-41.0432
-44.6488
-48.1932
-51.5684
-54.6593
-57.3545
-59.5559
-61.1832
-62.1697
-62.4423
-61.8823
-60.2624
-57.1635
-51.8817
-43.346
-30.0746
-10.2027
18.3893
57.8337
109.925
175.696
254.985
346.066
445.441
547.851
646.564
733.926
802.125
844.09
854.382
829.964
770.718
679.634
562.624
427.979
285.539
145.674
18.214
-88.5509
-168.66
-218.988
-239.414
-232.639
-203.711
-159.309
-106.903
-53.8828
-6.77756
29.3731
51.4148
58.2249
50.612
31.0022
2.97046
-29.3139
-61.6518
-90.3223
-112.477
-126.387
-131.524
-128.494
-118.827
-104.682
-88.5102
-72.7027
-59.2955
-49.7414
-44.7798
-44.4091
-47.9551
-54.2174
-61.6706
-68.6873
-73.7557
-75.6627
-73.6245
-67.351
-57.0423
-43.3225
-27.1262
-9.55306
8.28486
25.4059
41.0718
54.8605
66.6906
76.7996
85.6807
93.9902
102.439
111.682
122.223
134.344
148.066
163.149
179.119
195.331
211.047
225.518
238.062
248.136
255.371
259.592
260.811
259.188
254.991
248.543
240.17
230.166
218.769
206.16
192.465
177.785
162.216
145.88
128.939
111.616
94.187
76.974
60.3272
44.5984
30.1137
17.146
5.89367
-3.53605
-11.1333
-16.9839
-21.258
-24.1926
-26.0684
-27.1846
-27.8341
-28.2817
-28.7475
-29.396
-30.3324
-31.6046
-33.2106
-35.1077
-37.2244
-39.4704
-41.7459
-43.9477
-45.9733
-47.7238
-49.1048
-50.0287
-50.417
-50.2045
-49.3433
-47.8092
-45.6062
-42.7702
-39.3712
-35.5112
-31.3199
-26.9467
-22.5499
-18.2844
-14.2891
-10.6765
-7.52478
-4.87487
-2.73224
-1.07319
0.145872
0.978003
1.47666
1.68979
1.65855
1.42052
1.01672
0.500147
-0.056485
-0.556271
-0.878766
-0.886529
-0.437178
0.60057
2.32932
4.80664
8.03277
11.9444
16.4157
21.2669
26.2791
31.2138
35.834
39.926
43.3172
45.8899
47.5891
48.4235
48.4604
47.8153
46.6373
45.0925
43.3472
41.5517
39.8278
38.26
36.8911
35.7225
34.7192
33.8175
32.9356
31.9847
30.8797
29.548
27.9363
26.0132
23.7691
21.2125
18.3643
15.2506
11.896
8.31877
4.52806
0.524664
-3.69531
-8.13449
-12.7872
-17.6328
-22.6302
-27.7151
-32.8003
-37.7781
-42.5254
-46.911
-50.8024
-54.0743
-56.6167
-58.3422
-59.193
-59.1465
-58.2193
-56.469
-53.9931
-50.9246
-47.425
-43.6742
-39.8584
-36.1567
-32.7287
-29.7027
-27.1674
-25.1663
-23.697
-22.7138
-22.1338
-21.8455
-21.7189
-21.6156
-21.3982
-20.9377
-20.1196
-18.8488
-17.0532
-14.688
-11.7411
-8.2383
-4.25052
0.10042
4.63784
9.13077
13.301
16.8386
19.4264
20.7729
20.6519
18.9435
15.6715
11.0308
5.39817
-0.678158
-6.51201
-11.3355
-14.3731
-14.9261
-12.4577
-6.66815
2.45137
14.5925
29.1382
45.2053
61.719
77.5107
91.4295
102.453
109.789
112.945
111.781
106.504
97.6495
86.01
72.5521
58.3144
44.3038
31.4019
20.2905
11.4027
4.90594
0.713385
-1.47619
-2.11901
-1.75442
-0.929849
-0.131139
0.275195
0.0843817
-0.718807
-1.94182
-3.16761
-3.7315
-2.68776
1.22872
9.62909
24.4579
47.9081
82.2366
129.467
190.999
267.166
356.823
457.054
563.084
668.452
765.48
845.989
902.193
927.638
918.07
872.087
791.466
681.131
548.725
403.863
257.135
119.01
-1.24077
-96.457
-162.236
-197.245
-203.175
-184.354
-147.094
-98.8565
-47.3432
0.361921
38.5181
63.2349
72.7233
67.2803
49.0322
21.4881
-11.027
-43.9792
-73.1982
-95.3492
-108.257
-111.056
-104.17
-89.1353
-68.3067
-44.4942
-20.5818
0.824644
17.6792
28.681
33.35
31.9949
25.5905
15.5866
3.68194
-8.40732
-19.1545
-27.3821
-32.3601
-33.8377
-32.0118
-27.4436
-20.9398
-13.4169
-5.76821
1.25089
7.10692
11.5339
14.5394
16.375
17.4771
18.3903
19.6828
21.8663
25.3294
30.2917
36.7809
44.6361
53.5314
63.0173
72.5718
81.6539
89.7532
96.4293
101.337
104.241
105.009
103.611
100.099
94.595
87.2773
78.3677
68.1206
56.8112
44.7234
32.1356
19.3079
6.46911
-6.19252
-18.5353
-30.4648
-41.9312
-52.9216
-63.4511
-73.5528
-83.2673
-92.634
-101.683
-110.43
-118.868
-126.966
-134.662
-141.864
-148.449
-154.266
-159.147
-162.917
-165.41
-166.49
-166.066
-164.106
-160.65
-155.812
-149.775
-142.775
-135.085
-126.988
-118.749
-110.592
-102.682
-95.1158
-87.9191
-81.0608
-74.4688
-68.0535
-61.7313
-55.4456
-49.1811
-42.97
-36.8896
-31.0511
-25.5832
-20.6133
-16.248
-12.5579
-9.56836
-7.25626
-5.55378
-4.357
-3.5359
-2.94075
-2.39839
-1.6919
-0.519038
1.57004
5.24791
11.4804
21.5667
37.1196
59.9577
91.8952
134.435
188.398
253.542
328.25
409.359
492.202
570.888
638.81
689.347
716.651
716.424
686.555
627.53
542.529
437.196
319.103
196.968
79.7313
-24.3886
-108.741
-168.89
-202.98
-211.791
-198.496
-168.143
-126.967
-81.608
-38.3399
-2.40278
22.4874
34.4084
33.2654
20.6048
-0.750303
-27.1822
-54.8098
-79.9987
-99.7892
-112.198
-116.37
-112.565
-102.017
-86.6728
-68.8718
-51.0006
-35.1778
-22.9995
-15.3752
-12.4655
-13.7209
-18.0071
-23.7943
-29.381
-33.1211
-33.6261
-29.9197
-21.5297
-8.51114
8.59655
28.8668
51.1216
74.0866
96.5438
117.465
136.112
152.092
165.365
176.212
185.161
192.89
200.123
207.522
215.601
224.66
234.76
245.715
257.13
268.448
279.025
288.192
295.332
299.923
301.581
300.07
295.307
287.337
276.315
262.472
246.09
227.481
206.979
184.937
161.733
137.782
113.541
89.5171
66.2522
44.3084
24.2352
6.53008
-8.40428
-20.3017
-29.066
-34.7909
-37.7623
-38.4416
-37.4282
-35.4057
-33.0758
-31.088
-29.9709
-30.0757
-31.5378
-34.262
-37.9349
-42.0625
-46.0306
-49.1805
-50.8906
-50.6539
-48.1432
-43.2528
-36.1154
-27.0886
-16.7163
-5.66922
5.3282
15.5729
24.4528
31.5026
36.4393
39.1759
39.8126
38.6088
35.9404
32.2491
27.9905
23.5855
19.3825
15.6315
12.4733
9.94185
7.97865
6.45583
5.2038
4.04001
2.79574
1.33833
-0.4121
-2.47257
-4.79348
-7.26142
-9.70795
-11.9242
-13.6805
-14.7502
-14.9358
-14.0956
-12.1673
-9.18623
-5.29458
-0.739545
4.14093
8.94443
13.2401
16.6107
18.6966
19.2345
18.0893
15.2715
10.941
5.39429
-0.96206
-7.64936
-14.162
-20.0147
-24.7866
-28.1583
-29.9371
-30.0693
-28.6384
-25.85
-22.0066
-17.4733
-12.6411
-7.88879
-3.54953
0.116494
2.93942
4.8464
5.85684
6.06728
5.62822
4.7163
3.50604
2.14549
0.739445
-0.657374
-2.03667
-3.42368
-4.85808
-6.37257
-7.97336
-9.62634
-11.2514
-12.726
-13.8972
-14.6011
-14.6849
-14.0303
-12.5732
-10.3174
-7.34093
-3.79298
0.117361
4.13931
8.0037
11.4484
14.2434
16.2119
17.2469
17.3197
16.4803
14.8505
12.6088
9.97065
7.16458
4.40864
1.88836
-0.260471
-1.9625
-3.20591
-4.0377
-4.55198
-4.87311
-5.1359
-5.46573
-5.96119
-6.68126
-7.63883
-8.80081
-10.0946
-11.4199
-12.6634
-13.7151
-14.4827
-14.9036
-14.9516
-14.6387
-14.0115
-13.1439
-12.1256
-11.0509
-10.0064
-9.06161
-8.26227
-7.627
-7.14788
-6.79439
-6.51975
-6.26901
-5.98753
-5.62884
-5.16077
-4.56915
-3.85842
-3.04902
-2.17198
-1.26135
-0.34602
0.557573
1.45022
2.35078
3.29246
4.3148
5.45262
6.72395
8.11984
9.59854
11.0862
12.4849
13.6872
14.5955
15.1416
15.3042
15.1201
14.6864
14.153
13.7058
13.5439
13.8526
14.7774
16.4025
18.737
21.7105
25.1791
28.9403
32.7551
36.3741
39.5644
42.1335
43.9477
44.9427
45.1262
44.5717
43.405
41.7865
39.8904
37.884
35.9103
34.0745
32.4362
31.0078
29.7579
28.6196
27.5013
26.298
24.9034
23.2187
21.1609
18.6678
15.7017
12.2513
8.33243
3.98872
-0.709948
-5.6693
-10.7742
-15.8935
-20.8865
-25.6105
-29.9285
-33.7166
-36.871
-39.3124
-40.9883
-41.8728
-41.964
-41.2774
-39.8354
-37.6494
-34.6907
-30.8459
-25.8563
-19.2419
-10.2231
2.34135
19.971
44.5042
77.9354
122.14
178.501
247.477
328.195
418.138
513.028
606.957
692.807
762.912
809.92
827.711
812.263
762.31
679.697
569.365
438.937
297.971
156.963
26.2204
-85.2188
-170.516
-225.675
-249.831
-245.165
-216.475
-170.465
-114.864
-57.496
-5.40298
35.8569
62.6813
73.6194
69.2951
52.091
25.654
-5.69998
-37.5988
-66.1668
-88.455
-102.706
-108.437
-106.348
-98.0885
-85.9181
-72.3251
-59.6523
-49.7792
-43.8977
-42.4016
-44.8956
-50.3093
-57.0943
-63.4699
-67.682
-68.2397
-64.1023
-54.7949
-40.4458
-21.7445
0.16629
23.8467
47.7417
70.3638
90.4544
107.108
119.844
128.629
133.841
136.194
136.634
136.213
135.963
136.787
139.366
144.104
151.101
160.167
170.861
182.559
194.53
206.024
216.344
224.919
231.338
235.378
236.993
236.288
233.478
228.83
222.611
215.036
206.237
196.248
185.012
172.418
158.343
142.715
125.566
107.08
87.6144
67.6953
47.9866
29.2291
12.164
-2.55172
-14.4248
-23.1874
-28.8324
-31.6171
-32.0338
-30.7527
-28.5427
-26.1842
-24.3818
-23.6914
-24.4673
-26.8371
-30.705
-35.7814
-41.6335
-47.7485
-53.602
-58.7202
-62.7315
-65.3994
-66.6365
-66.4978
-65.1583
-62.8767
-59.9544
-56.6929
-53.357
-50.148
-47.1884
-44.5193
-42.1101
-39.8766
-37.7044
-35.4736
-33.0812
-30.4577
-27.5772
-24.459
-21.1623
-17.7756
-14.4021
-11.1457
-8.09691
-5.32312
-2.86305
-0.725757
1.106
2.66929
4.01281
5.18843
6.24392
7.21777
8.13661
9.01522
9.85862
10.6654
11.4316
12.1539
12.8313
13.4663
14.063
14.6253
15.1536
15.6414
16.0742
16.4275
16.6687
16.7599
16.6617
16.3389
15.7657
14.9298
13.8355
12.5045
10.9745
9.29539
7.52451
5.7204
3.93701
2.21868
0.596873
-0.911066
-2.30095
-3.57902
-4.75796
-5.85258
-6.8759
-7.83637
-8.73659
-9.57375
-10.3414
-11.0326
-11.6427
-12.173
-12.632
-13.0373
-13.414
-13.7931
-14.2083
-14.691
-15.2656
-15.943
-16.7152
-17.5506
-18.3912
-19.1537
-19.7339
-20.0167
-19.8879
-19.2506
-18.0406
-16.2402
-13.8884
-11.0832
-7.97785
-4.76849
-1.67492
1.08281
3.30945
4.85758
5.6453
5.66612
4.98942
3.75171
2.13963
0.367253
-1.34909
-2.81528
-3.8797
-4.44707
-4.48418
-4.01725
-3.12199
-1.90808
-0.500734
0.977954
2.42537
3.77052
4.98075
6.06291
7.05918
8.03898
9.08815
10.2972
11.75
13.5143
15.6344
18.1265
20.9777
24.1462
27.5644
31.1439
34.7812
38.3648
41.7828
44.9303
47.7177
50.0763
51.9638
53.3659
54.2949
54.7842
54.8795
54.628
54.0669
53.2139
52.0613
50.5754
48.7015
46.3745
43.5323
40.1315
36.1616
31.6554
26.6937
21.4034
15.9487
10.5166
5.29871
0.472054
-3.81931
-7.47841
-10.4644
-12.7955
-14.5462
-15.8399
-16.8373
-17.7227
-18.6867
-19.9033
-21.4976
-23.4997
-25.7799
-27.9665
-29.3539
-28.8172
-24.76
-15.1284
2.47784
30.5776
71.462
126.759
196.967
281.039
376.1
477.392
578.49
671.792
749.262
803.32
827.771
818.642
774.781
698.157
593.773
469.217
333.895
198.045
71.6614
-36.5425
-119.993
-174.846
-200.248
-198.237
-173.329
-131.85
-81.1056
-28.5047
19.2626
56.8932
80.9231
89.9244
84.4474
66.7356
40.27
9.21137
-22.1806
-50.0806
-71.5214
-84.6683
-88.9245
-84.8717
-74.0689
-58.7497
-41.4659
-24.7262
-10.6782
-0.867741
3.89944
3.58846
-1.13686
-9.06883
-18.6657
-28.284
-36.4018
-41.8038
-43.7095
-41.8319
-36.3665
-27.9182
-17.3819
-5.7957
5.81128
16.5569
25.8134
33.2736
38.971
43.2553
46.73
50.1631
54.3816
60.1647
68.147
78.7415
92.0894
108.042
126.173
145.82
166.148
186.232
205.136
221.999
236.097
246.896
254.067
257.49
257.219
253.444
246.44
236.511
223.96
209.063
192.073
173.237
152.828
131.184
108.736
86.0241
63.6904
42.4514
23.0464
6.17214
-7.58904
-17.8358
-24.3995
-27.3729
-27.1102
-24.1974
-19.3967
-13.5716
-7.60148
-2.29611
1.67852
3.85603
4.00052
2.11059
-1.60244
-6.75748
-12.8612
-19.3719
-25.7621
-31.5714
-36.4466
-40.1627
-42.6283
-43.8732
-44.0245
-43.2756
-41.851
-39.9753
-37.847
-35.6209
-33.4005
-31.2386
-29.146
-27.104
-25.0797
-23.0404
-20.9646
-18.8504
-16.7171
-14.6039
-12.5645
-10.6587
-8.94449
-7.46897
-6.26176
-5.32987
-4.65453
-4.18872
-3.85306
-3.52645
-3.0267
-2.07703
-0.256703
3.06073
8.77043
18.0809
32.514
53.8333
83.8781
124.301
176.225
239.864
314.181
396.646
483.187
568.36
645.764
708.663
750.739
766.882
753.885
710.95
639.924
545.208
433.36
312.431
191.125
77.8871
-19.9567
-96.9114
-149.788
-177.899
-182.956
-168.712
-140.393
-104.006
-65.6209
-30.6989
-3.55728
12.9856
17.7561
11.1647
-5.03431
-28.1154
-54.8273
-81.8497
-106.204
-125.57
-138.486
-144.414
-143.685
-137.335
-126.89
-114.093
-100.666
-88.0802
-77.4083
-69.2359
-63.6523
-60.306
-58.51
-57.3773
-55.963
-53.3936
-48.9666
-42.2113
-32.9076
-21.0657
-6.87901
9.34117
27.2319
46.4368
66.6461
87.6155
109.164
131.153
153.461
175.948
198.43
220.669
242.367
263.179
282.74
300.691
316.709
330.53
341.965
350.898
357.28
361.11
362.409
361.202
357.495
351.269
342.483
331.086
317.042
300.364
281.141
259.564
235.945
210.711
184.397
157.611
130.998
105.195
80.7869
58.2694
38.0192
20.2783
5.15155
-7.3842
-17.4608
-25.2932
-31.1504
-35.328
-38.1236
-39.8176
-40.6606
-40.8672
-40.6152
-40.048
-39.2809
-38.4069
-37.5023
-36.6317
-35.8499
-35.2027
-34.7264
-34.4464
-34.3752
-34.5117
-34.8408
-35.3341
-35.9517
-36.6446
-37.3582
-38.0348
-38.6173
-39.0519
-39.2903
-39.2917
-39.0233
-38.4604
-37.5855
-36.3857
-34.8501
-32.9669
-30.721
-28.0938
-25.0657
-21.6219
-17.7608
-13.505
-8.91155
-4.08118
0.838297
5.65414
10.1384
14.0445
17.1295
19.1795
20.0339
19.6073
17.9036
15.0225
11.1545
6.56776
1.58571
-3.44104
-8.16543
-12.2744
-15.5159
-17.7188
-18.8057
-18.7951
-17.7949
-15.9871
-13.6053
-10.909
-8.1563
-5.57861
-3.36032
-1.62511
-0.430033
0.232456
0.425463
0.253343
-0.155731
-0.667854
-1.15978
-1.53167
-1.71475
-1.67351
-1.40242
-0.918547
-0.251593
0.566626
1.51116
2.56981
3.74493
5.05097
6.50843
8.13562
9.93999
11.9108
14.0149
16.1962
18.3802
20.4812
22.4134
24.1016
25.4919
26.559
27.309
27.7781
28.0257
28.1244
28.1472
28.1554
28.1871
28.2505
28.3214
28.3454
28.2463
27.9366
27.3308
26.3589
24.9769
23.1752
20.9817
18.4609
15.7077
12.8389
9.98226
7.26433
4.79993
2.68306
0.980802
-0.269685
-1.06097
-1.41261
-1.36651
-0.981618
-0.328501
0.515161
1.4681
2.44789
3.37272
4.16288
4.74249
5.04195
5.00106
4.57301
3.72853
2.45991
0.784028
-1.25617
-3.59243
-6.13444
-8.77559
-11.4009
-13.8966
-16.1597
-18.107
-19.6815
-20.8555
-21.6295
-22.0274
-22.0884
-21.8579
-21.3776
-20.6785
-19.7762
-18.6707
-17.3501
-15.7975
-13.9999
-11.9571
-9.68983
-7.2443
-4.69339
-2.13318
0.324433
2.56258
4.47233
5.96617
6.99039
7.53462
7.6371
7.38441
6.90515
6.35726
5.91022
5.72356
5.92448
6.58757
7.71975
9.25315
11.0475
12.9023
14.5777
15.8215
16.3985
16.119
14.8615
12.5872
9.34509
5.26612
0.549545
-4.55684
-9.77878
-14.8368
-19.4642
-23.4203
-26.4989
-28.5328
-29.3956
-29.0032
-27.3163
-24.3451
-20.1559
-14.8796
-8.71808
-1.94935
5.07464
11.9369
18.1736
23.302
26.8559
28.4273
27.7081
24.5296
18.8912
10.9752
1.14418
-10.0808
-22.0602
-34.0893
-45.4601
-55.5247
-63.7524
-69.7757
-73.4187
-74.7068
-73.8562
-71.2448
-67.367
-62.775
-58.0098
-53.5233
-49.5935
-46.235
-43.1095
-39.4465
-33.9902
-24.9951
-10.2955
12.5288
45.8787
91.7652
151.376
224.637
309.858
403.534
500.379
593.634
675.638
738.616
775.582
781.239
752.737
690.178
596.778
478.654
344.248
203.47
66.6523
-56.5329
-158.07
-232.381
-276.798
-291.692
-280.241
-247.903
-201.647
-149.083
-97.5628
-53.3996
-21.2599
-3.80646
-1.60592
-13.2924
-35.9436
-65.6056
-97.8863
-128.541
-153.975
-171.614
-180.104
-179.335
-170.31
-154.881
-135.415
-114.424
-94.2256
-76.6686
-62.9503
-53.542
-48.2184
-46.1759
-46.2138
-46.9473
-47.0207
-45.293
-40.9735
-33.6965
-23.5299
-10.9255
3.37704
18.4745
33.4336
47.4148
59.7728
70.1218
78.3624
84.671
89.4556
93.288
96.8217
100.706
105.508
111.648
119.355
128.651
139.35
151.09
163.374
175.627
187.257
197.715
206.539
213.4
218.11
220.629
221.047
219.546
216.358
211.715
205.804
198.728
190.487
180.977
170.014
157.369
142.827
126.247
107.617
87.0944
65.0348
41.9824
18.6406
-4.18305
-25.6504
-44.9736
-61.4944
-74.7504
-84.5211
-90.8469
-94.0193
-94.5452
-93.0879
-90.3949
-87.2196
-84.2472
-82.0316
-80.9509
-81.1847
-82.714
-85.3421
-88.7326
-92.4595
-96.0617
-99.0976
-101.191
-102.07
-101.583
-99.7112
-96.5587
-92.3299
-87.3013
-81.7858
-76.0961
-70.5119
-65.2524
-60.4591
-56.1882
-52.4137
-49.0405
-45.924
-42.8955
-39.7887
-36.4638
-32.8279
-28.8483
-24.5571
-20.0486
-15.4673
-10.9916
-6.81209
-3.10964
-0.0347696
2.30902
3.87588
4.68128
4.79854
4.34887
3.4866
2.38144
1.2004
0.0913332
-0.82995
-1.4877
-1.84893
-1.92101
-1.74489
-1.38533
-0.919601
-0.426196
0.0250749
0.380569
0.607288
0.694163
0.650407
0.501517
0.283726
0.0378114
-0.196889
-0.387503
-0.511184
-0.556923
-0.525601
-0.428479
-0.284516
-0.116996
0.050023
0.194962
0.301282
0.359111
0.365829
0.325649
0.24837
0.147533
0.0383021
-0.0646442
-0.148932
-0.205827
-0.230968
-0.224464
-0.190411
-0.135962
-0.0700959
-0.0022989
0.0586931
0.105917
0.134877
0.143876
0.133999
0.108877
0.0744076
0.0386301
0.0119353
0.00764179
0.0428047
0.138925
0.322077
0.621935
1.06924
1.69152
2.50701
3.51747
4.70052
6.00303
7.33711
8.58075
9.58434
10.1842
10.2221
9.56917
8.15011
5.96368
3.09515
-0.282454
-3.92
-7.5159
-10.7489
-13.3155
-14.9662
-15.5347
-14.9565
-13.273
-10.6216
-7.21372
-3.30461
0.840247
4.97667
8.90709
12.4963
15.6765
18.441
20.8304
22.9119
24.757
26.4209
27.9261
29.2538
30.3426
31.0967
31.4016
31.1446
30.2397
28.6503
26.4091
23.6289
20.504
17.2974
14.3176
11.8834
10.2833
9.73476
10.3481
12.1031
14.8417
18.2778
22.0257
25.6423
28.6773
30.7263
31.4776
30.7482
28.5035
24.8595
20.0657
14.4749
8.49974
2.56667
-2.93119
-7.67378
-11.4436
-14.1418
-15.7906
-16.522
-16.5552
-16.1666
-15.6514
-15.281
-15.2536
-15.6369
-16.3004
-16.8394
-16.4958
-14.0913
-7.99379
3.85226
23.806
54.3003
97.5032
154.896
226.823
312.09
407.698
508.793
608.885
700.339
775.11
825.637
845.768
831.592
782.052
699.236
588.3
457.014
314.995
172.705
40.3691
-73.0816
-160.887
-219.067
-246.688
-245.783
-220.933
-178.594
-126.26
-71.5631
-21.4374
18.5742
44.7901
55.6037
51.4365
34.4588
8.13314
-23.349
-55.6585
-84.8733
-107.916
-122.838
-128.936
-126.697
-117.603
-103.823
-87.8606
-72.1844
-58.9064
-49.536
-44.8364
-44.7899
-48.6675
-55.1823
-62.6995
-69.4724
-73.8704
-74.5739
-70.7144
-61.949
-48.4668
-30.9332
-10.3857
11.9039
34.5798
56.3486
76.1049
93.0263
106.629
116.784
123.695
127.848
129.93
130.75
131.142
131.884
133.629
136.853
141.829
148.619
157.087
166.935
177.735
188.983
200.143
210.685
220.112
227.983
233.913
237.571
238.672
236.968
232.25
224.351
213.176
198.727
181.143
160.733
137.997
113.629
88.4972
63.5932
39.9648
18.6278
0.475168
-13.8092
-23.8181
-29.462
-30.9769
-28.8988
-24.006
-17.2375
-9.59763
-2.0575
4.53486
9.52619
12.5043
13.3156
12.0542
9.02505
4.68886
-0.404578
-5.68552
-10.628
-14.8013
-17.9051
-19.7854
-20.4322
-19.9613
-18.5837
-16.5685
-14.2039
-11.7617
-9.46823
-7.48564
-5.90331
-4.74
-3.95468
-3.46388
-3.16267
-2.94608
-2.72832
-2.45739
-2.12351
-1.76066
-1.44123
-1.26494
-1.34338
-1.78238
-2.66423
-4.03214
-5.87858
-8.13927
-10.6936
-13.3721
-15.9696
-18.2644
-20.0398
-21.1066
-21.3235
-20.6124
-18.9681
-16.4586
-13.2185
-9.43435
-5.32545
-1.12156
2.95874
6.72669
10.0368
12.7935
14.9514
16.5092
17.4989
17.9739
17.9956
17.6236
16.9083
15.889
14.5947
13.0494
11.2777
9.31039
7.18848
4.96323
2.69314
0.437459
-1.75223
-3.84084
-5.81695
-7.69654
-9.52199
-11.3559
-13.2702
-15.3317
-17.5864
-20.0454
-22.6739
-25.3867
-28.0507
-30.495
-32.5278
-33.9576
-34.6168
-34.384
-33.201
-31.0842
-28.1264
-24.4898
-20.3914
-16.0818
-11.8205
-7.85127
-4.3796
-1.5555
0.537024
1.88281
2.53103
2.58437
2.18354
1.48953
0.665594
-0.138678
-0.799802
-1.22817
-1.37084
-1.20964
-0.75541
-0.0395646
0.895484
2.00576
3.25376
4.61417
6.0769
7.64721
9.34334
11.192
13.2228
15.4613
17.9233
20.6089
23.4982
26.5489
29.6959
32.8527
35.916
38.7708
41.2985
43.3841
44.9249
45.8376
46.0638
45.5743
44.3707
42.484
39.973
36.9197
33.4262
29.6108
25.6058
21.5553
17.6136
13.9423
10.7062
8.06529
6.16401
5.11711
4.993
5.79658
7.45398
9.80237
12.5879
15.4745
18.0647
19.932
20.6631
19.9037
17.4042
13.0568
6.91925
-0.778511
-9.64875
-19.1783
-28.7764
-37.8323
-45.7746
-52.1261
-56.5467
-58.86
-59.0621
-57.3112
-53.9026
-49.2318
-43.7507
-37.9201
-32.1588
-26.7879
-21.9662
-17.6152
-13.3345
-8.31624
-1.27771
9.56042
26.4187
51.7973
88.1943
137.714
201.606
279.804
370.55
470.195
573.253
672.724
760.703
829.191
871.013
880.732
855.4
795.057
702.884
584.984
449.811
307.316
167.912
41.4064
-63.9914
-142.45
-191.005
-209.701
-201.401
-171.283
-126.116
-73.4119
-20.5516
25.9944
61.279
82.2609
87.9312
79.1923
58.5265
29.512
-3.73782
-37.1392
-67.1345
-91.0675
-107.403
-115.778
-116.899
-112.309
-104.076
-94.4396
-85.4795
-78.8345
-75.5107
-75.7924
-79.257
-84.8825
-91.2257
-96.639
-99.4986
-98.4117
-92.3805
-80.9072
-64.0322
-42.3068
-16.7108
11.473
40.8069
69.8524
97.3125
122.147
143.651
161.494
175.718
186.692
195.044
201.57
207.133
212.568
218.591
225.74
234.326
244.424
255.876
268.327
281.266
294.083
306.123
316.738
325.332
331.388
334.49
334.33
330.707
323.524
312.784
298.588
281.134
260.718
237.738
212.688
186.156
158.806
131.36
104.568
79.1681
55.8444
35.1847
17.6366
3.47259
-7.23413
-14.6187
-19.0166
-20.9379
-21.0255
-20.001
-18.6034
-17.5265
-17.3619
-18.5529
-21.3644
-25.8707
-31.9628
-39.3732
-47.7138
-56.5251
-65.327
-73.6688
-81.1717
-87.5586
-92.67
-96.4631
-98.996
-100.399
-100.837
-100.475
-99.441
-97.8016
-95.5551
-92.636
-88.9355
-84.3336
-78.7357
-72.1086
-64.5088
-56.0975
-47.14
-37.9883
-29.0498
-20.7452
-13.4624
-7.51233
-3.09304
-0.265014
1.05961
1.11626
0.280642
-0.937677
-1.89284
-1.78641
0.361868
5.74622
15.791
32.1251
56.4871
90.5449
135.626
192.381
260.437
338.092
422.147
507.927
589.535
660.341
713.664
743.554
745.572
717.453
659.531
574.867
469.042
349.634
225.441
105.561
-1.57194
-89.0464
-152.146
-188.742
-199.372
-187.019
-156.616
-114.365
-66.9654
-20.8347
18.5639
47.2313
62.9243
65.2151
55.332
35.8215
10.0886
-18.1166
-45.1981
-68.1393
-84.81
-94.1287
-96.0761
-91.5721
-82.2468
-70.1458
-57.4121
-45.9901
-37.3841
-32.4989
-31.5729
-34.2023
-39.4453
-45.9833
-52.313
-56.9432
-58.5712
-56.2192
-49.321
-37.7528
-21.8122
-2.1542
20.3049
44.5001
69.3347
93.787
116.999
138.34
157.439
174.185
188.71
201.333
212.501
222.714
232.452
242.11
251.941
262.027
272.262
282.361
291.887
300.287
306.95
311.258
312.644
310.642
304.93
295.364
281.99
265.052
244.98
222.363
197.913
172.417
146.68
121.474
97.4817
75.2573
55.1943
37.5133
22.2666
9.35856
-1.41903
-10.3442
-17.7186
-23.8247
-28.8923
-33.077
-36.4548
-39.0299
-40.755
-41.5596
-41.3803
-40.1898
-38.0174
-34.961
-31.1869
-26.9185
-22.4171
-17.9555
-13.7914
-10.1416
-7.16243
-4.9373
-3.47346
-2.70748
-2.51825
-2.74545
-3.21073
-3.73894
-4.17673
-4.40668
-4.35558
-3.99667
-3.34608
-2.45471
-1.39719
-0.259548
0.872457
1.92301
2.83291
3.56284
4.09335
4.42211
4.55937
4.52252
4.3308
4.00089
3.54395
2.96429
2.25963
1.42289
0.445224
-0.679623
-1.94988
-3.34946
-4.84167
-6.364
-7.82552
-9.10837
-10.0743
-10.5764
-10.475
-9.6559
-8.04858
-5.64059
-2.4865
1.29101
5.50865
9.93773
14.3256
18.4206
21.997
24.8771
26.9478
28.1688
28.5729
28.2566
27.3636
26.0621
24.5198
22.8795
21.2393
19.6407
18.0674
16.4536
14.7042
12.721
10.4322
7.82073
4.94495
1.94884
-0.941936
-3.43816
-5.21782
-5.96571
-5.41663
-3.3962
0.146273
5.1178
11.2776
18.25
25.5538
32.6445
38.9651
44.0002
47.3267
48.6553
47.8588
44.9837
40.2431
33.9939
26.6997
18.8845
11.0836
3.79502
-2.56085
-7.67176
-11.3506
-13.5387
-14.2972
-13.787
-12.243
-9.94422
-7.18452
-4.24614
-1.37869
1.21555
3.38965
5.05381
6.17206
6.75508
6.85071
6.5333
5.89325
5.0273
4.03029
2.98865
1.97552
1.04762
0.243347
-0.417873
-0.935491
-1.32713
-1.62762
-1.888
-2.17498
-2.57081
-3.17382
-4.09897
-5.47751
-7.45461
-10.1835
-13.8151
-18.4833
-24.2866
-31.2675
-39.3941
-48.5452
-58.5042
-68.9622
-79.5333
-89.7796
-99.2458
-107.497
-114.161
-118.955
-121.723
-122.438
-121.208
-118.259
-113.908
-108.527
-102.504
-96.1978
-89.9082
-83.8457
-78.1195
-72.7368
-67.616
-62.6121
-57.5487
-52.2547
-46.5986
-40.5166
-34.0306
-27.2531
-20.3787
-13.664
-7.39755
-1.86438
2.68964
6.09046
8.26071
9.23401
9.15676
8.27685
6.92007
5.4566
4.26123
3.67201
3.95237
5.26148
7.6368
10.991
15.1237
19.7468
24.5193
29.0881
33.1284
36.3792
38.6689
39.9278
40.1862
39.5591
38.2196
36.3653
34.1838
31.8213
29.3606
26.8105
24.1086
21.1373
17.7491
13.7991
9.17852
3.84575
-2.15016
-8.65663
-15.4173
-22.0854
-28.2498
-33.471
-37.3244
-39.4461
-39.5746
-37.5874
-33.5243
-27.597
-20.1828
-11.8014
-3.0767
5.31626
12.7167
18.5548
22.4386
24.2475
24.2279
23.0816
22.0302
22.836
27.7547
39.3969
60.4867
93.5194
140.345
201.731
276.964
363.59
457.343
552.324
641.44
717.069
771.876
799.677
796.229
759.832
691.65
595.699
478.501
348.438
214.886
87.2553
-25.9634
-118.02
-184.498
-223.625
-236.273
-225.664
-196.84
-155.975
-109.609
-63.9221
-24.1021
6.10081
24.6193
31.0915
26.6858
13.7659
-4.5459
-24.8457
-43.9031
-59.0423
-68.4112
-71.1179
-67.2332
-57.6726
-43.987
-28.0968
-12.0097
2.44173
13.8119
21.1821
24.2199
23.1581
18.7055
11.9082
3.98271
-3.85318
-10.532
-15.2526
-17.5504
-17.3175
-14.7759
-10.4118
-4.88405
1.08016
6.78691
11.663
15.3201
17.589
18.5257
18.3877
17.5907
16.6489
16.111
16.4966
18.2429
21.6635
26.9242
34.0346
42.8542
53.1104
64.4229
76.3329
88.3312
99.8846
110.459
119.538
126.643
131.35
133.31
132.273
128.113
120.851
110.671
97.9354
83.1713
67.0526
50.3572
33.9093
18.5111
4.8705
-6.4667
-15.1707
-21.1609
-24.6122
-25.9335
-25.7193
-24.679
-23.5543
-23.0321
-23.6665
-25.8169
-29.612
-34.9428
-41.485
-48.7471
-56.1376
-63.0421
-68.8994
-73.2682
-75.8752
-76.6405
-75.6777
-73.2697
-69.8254
-65.8238
-61.7526
-58.0498
-55.0553
-52.978
-51.8813
-51.6876
-52.1995
-53.1344
-54.1666
-54.9715
-55.265
-54.8352
-53.5609
-51.4179
-48.4714
-44.8585
-40.7634
-36.3894
-31.9324
-27.5584
-23.3886
-19.492
-15.8865
-12.5467
-9.41682
-6.4266
-3.50754
-0.608383
2.29264
5.1796
7.99582
10.6462
13.0051
14.9288
16.2715
16.9041
16.7317
15.7104
13.8593
11.2657
8.08444
4.52825
0.851581
-2.67131
-5.77149
-8.21084
-9.80498
-10.4409
-10.0873
-8.79627
-6.69669
-3.97965
-0.878231
2.35627
5.47869
8.27237
10.5673
12.2521
13.2792
13.6631
13.472
12.8149
11.8253
10.6442
9.40363
8.21379
7.15348
6.26583
5.55856
5.00857
4.56963
4.18193
3.78212
3.31259
2.72891
2.00502
1.13563
0.13621
-0.959247
-2.10205
-3.23367
-4.29104
-5.21176
-5.93898
-6.42548
-6.63693
-6.55411
-6.17394
-5.5091
-4.58636
-3.44372
-2.12681
-0.685677
0.827395
2.3582
3.84889
5.2348
6.44083
7.37888
7.94784
8.03701
7.53349
6.33315
4.35398
