103.683
70.2198
34.8449
-0.829588
-34.9979
-65.8297
-91.6526
-111.126
-123.383
-128.126
-125.655
-116.838
-103.013
-85.8486
-67.1675
-48.7651
-32.2369
-18.8385
-9.38887
-4.22802
-3.22835
-5.85561
-11.2681
-18.4398
-26.2914
-33.8125
-40.1628
-44.742
-47.2231
-47.5506
-45.9064
-42.6534
-38.2647
-33.2496
-28.0874
-23.1731
-18.7834
-15.0616
-12.0225
-9.57275
-7.54133
-5.71653
-3.88228
-1.85039
0.514883
3.28189
6.4468
9.93822
13.6298
17.3585
20.9456
24.2183
27.0295
29.2729
30.8934
31.8903
32.3155
32.2648
31.8647
31.2569
30.5803
29.9544
29.4649
29.1535
29.0124
28.9843
28.969
28.833
28.4236
27.585
26.1737
24.0733
21.2056
17.5394
13.0929
7.93282
2.1689
-4.05557
-10.5752
-17.2149
-23.8008
-30.1691
-36.1704
-41.6705
-46.5482
-50.691
-53.9909
-56.343
-57.6471
-57.8142
-56.7774
-54.505
-51.015
-46.3869
-40.7693
-34.3804
-27.4997
-20.4519
-13.5837
-7.23508
-1.71003
2.7509
5.99241
7.95763
8.69129
8.33214
7.09592
5.25071
3.08797
0.892566
-1.08476
-2.64936
-3.67701
-4.11946
-4.00123
-3.40854
-2.47255
-1.34906
-0.197542
0.838079
1.64477
2.15046
2.32806
2.19379
1.80028
1.22614
0.563415
-0.0952123
-0.667939
-1.09274
-1.33291
-1.37878
-1.24605
-0.971003
-0.603749
-0.200487
0.184195
0.503965
0.725658
0.832004
0.822081
0.709668
0.519937
0.285069
0.0394636
-0.184822
-0.361845
-0.474385
-0.51517
-0.486734
-0.400045
-0.272227
-0.123752
0.0244925
0.153875
0.250121
0.304646
0.315029
0.28466
0.221693
0.13752
0.0449849
-0.0433786
-0.116896
-0.167895
-0.192351
-0.190008
-0.164007
-0.120132
-0.0658022
-0.00896298
0.0429685
0.0839811
0.110084
0.119623
0.113356
0.0943867
0.0681846
0.0428634
0.0298813
0.0451421
0.11028
0.253697
0.510803
0.922889
1.53427
2.38764
3.51794
4.94561
6.67014
8.66529
10.877
13.2245
15.6058
17.9058
20.0071
21.8014
23.2002
24.1422
24.5972
24.5646
24.0677
23.1442
21.8352
20.1735
18.1758
15.8378
13.1364
10.0367
6.50523
2.52626
-1.88097
-6.64747
-11.645
-16.6843
-21.5222
-25.8781
-29.4567
-31.9764
-33.1982
-32.9513
-31.1519
-27.8123
-23.0388
-17.0185
-9.99773
-2.25583
5.92182
14.2659
22.5373
30.5313
38.0719
44.9982
51.1485
56.3459
60.3914
63.0699
64.1702
63.5216
61.0447
56.8129
51.1176
44.526
37.9197
32.499
29.7394
31.2953
38.8481
53.9106
77.6057
110.446
152.149
201.512
256.386
313.753
369.928
420.857
462.497
491.225
504.242
499.893
477.895
439.405
386.936
324.129
255.393
185.468
118.962
59.909
11.4086
-24.6206
-47.5481
-57.9937
-57.6579
-49.0478
-35.1375
-19.0064
-3.49973
9.05202
17.0276
19.6081
16.7681
9.17544
-1.97806
-15.1891
-28.8678
-41.5465
-52.0505
-59.612
-63.9217
-65.1169
-63.7142
-60.5021
-56.4095
-52.369
-49.1941
-47.4823
-47.5549
-49.4376
-52.8794
-57.4054
-62.3928
-67.1586
-71.0474
-73.509
-74.1553
-72.7943
-69.4353
-64.2704
-57.6344
-49.9509
-41.6719
-33.2189
-24.9328
-17.0378
-9.6235
-2.64438
4.06252
10.7474
17.7089
25.2521
33.6497
43.1099
53.7546
65.6091
78.6033
92.5816
107.321
122.549
137.967
153.262
168.126
182.251
195.337
207.086
217.189
225.332
231.189
234.434
234.76
231.906
225.687
216.027
202.99
186.8
167.846
146.678
123.979
100.526
77.1384
54.6164
33.6846
14.9367
-1.20418
-14.5094
-24.9497
-32.6802
-38.0089
-41.3527
-43.1855
-43.9859
-44.1884
-44.1447
-44.0988
-44.176
-44.3883
-44.653
-44.8208
-44.7112
-44.1471
-42.9873
-41.1506
-38.6301
-35.4961
-31.8886
-28
-24.0521
-20.2696
-16.8545
-13.9642
-11.6956
-10.0772
-9.06996
-8.5754
-8.45061
-8.52734
-8.63294
-8.61045
-8.3355
-7.72847
-6.76038
-5.45263
-3.87072
-2.11331
-0.298137
1.45325
3.03005
4.34428
5.33921
5.99331
6.31954
6.36061
6.18094
5.8567
5.4653
5.07568
4.74057
4.49162
4.33765
4.26629
4.24832
4.24412
4.21127
4.11212
3.92042
3.62616
3.23788
2.7824
2.30186
1.84869
1.47898
1.24526
1.18955
1.33753
1.69445
2.2433
2.9454
3.74333
4.56574
5.33365
5.96739
6.39352
6.55101
6.39609
5.90542
5.07719
3.93027
2.50145
0.841221
-0.991496
-2.93498
-4.93008
-6.9247
-8.87692
-10.7563
-12.5436
-14.2287
-15.8073
-17.2772
-18.6345
-19.8703
-20.9692
-21.9087
-22.6607
-23.1942
-23.4786
-23.4887
-23.2076
-22.6309
-21.7677
-20.6414
-19.2883
-17.755
-16.0948
-14.3631
-12.6138
-10.8953
-9.24786
-7.70237
-6.28003
-4.99323
-3.84716
-2.84178
-1.9738
-1.23831
-0.629891
-0.142975
0.22828
0.490634
0.652605
0.72524
0.722567
0.661526
0.561283
0.441961
0.322936
0.220959
0.14838
0.11181
0.11144
0.141209
0.189836
0.242613
0.283724
0.298758
0.277018
0.213296
0.108808
-0.0288272
-0.186571
-0.347752
-0.494367
-0.609564
-0.679923
-0.697231
-0.659503
-0.571144
-0.442257
-0.287232
-0.122843
0.0338768
0.16768
0.266818
0.324214
0.337983
0.311285
0.251562
0.169318
0.0766216
-0.0144582
-0.0932846
-0.151782
-0.185152
-0.192128
-0.174766
-0.137862
-0.0880824
-0.0329537
0.0201668
0.0650263
0.0972667
0.11506
0.119614
0.115581
0.111329
0.119005
0.154223
0.235239
0.381512
0.611702
0.941275
1.38004
1.92999
2.58385
3.32463
4.12624
4.95532
5.77385
6.54242
7.22347
7.78433
8.19945
8.45174
8.53284
8.44259
8.18764
7.77977
7.23396
6.56666
5.79433
4.93239
3.99479
2.99397
1.94141
0.848571
-0.271981
-1.40519
-2.53223
-3.6294
-4.66739
-5.61105
-6.41974
-7.04839
-7.44898
-7.57242
-7.37045
-6.79738
-5.8117
-4.3776
-2.46673
-0.0603992
2.84741
6.24619
10.1042
14.3634
18.9334
23.6872
28.4566
33.0314
37.1613
40.5638
42.9382
43.9878
43.4502
41.1362
36.9773
31.079
23.7783
15.6981
7.79057
1.35288
-1.99893
-0.417326
8.01758
25.0666
52.0447
89.5157
137.017
192.878
254.171
316.851
376.063
426.616
463.549
482.721
481.347
458.387
414.743
353.224
278.286
195.575
111.337
31.7635
-37.6411
-92.5975
-130.434
-150.277
-153.026
-141.147
-118.297
-88.8489
-57.3693
-28.1161
-4.61085
10.6712
16.4684
12.7494
0.590384
-18.0605
-40.6943
-64.5853
-87.1266
-106.117
-119.971
-127.84
-129.63
-125.929
-117.866
-106.909
-94.6536
-82.6061
-72.0045
-63.686
-58.0182
-54.8948
-53.7922
-53.8753
-54.1344
-53.5352
-51.1605
-46.3265
-38.662
-28.1419
-15.075
-0.0511866
16.1435
32.6294
48.5409
63.1248
75.8188
86.3021
94.5146
100.646
105.098
108.428
111.279
114.314
118.145
123.28
130.083
138.747
149.284
161.536
175.193
189.823
204.91
219.894
234.213
247.335
258.787
268.179
275.206
279.653
281.387
280.341
276.498
269.877
260.524
248.511
233.94
216.959
197.779
176.696
154.107
130.515
106.526
82.8278
60.1529
39.2326
20.74
5.2331
-6.89677
-15.4629
-20.504
-22.2831
-21.2658
-18.0792
-13.4571
-8.17674
-2.99472
1.41227
4.49634
5.87338
5.34249
2.88966
-1.3227
-6.97814
-13.6376
-20.7776
-27.8312
-34.232
-39.4554
-43.0577
-44.7088
-44.2173
-41.5442
-36.8049
-30.2588
-22.286
-13.3542
-3.97949
5.31644
14.0469
21.7951
28.2404
33.1736
36.501
38.238
38.4939
37.4505
35.3377
32.4089
28.919
25.1064
21.1807
17.3156
13.647
10.2747
7.26641
4.6635
2.48599
0.737141
-0.593276
-1.52688
-2.09545
-2.34007
-2.31026
-2.06244
-1.65782
-1.15932
-0.628088
-0.119612
0.319845
0.656169
0.869212
0.9532
0.915571
0.774258
0.553657
0.279725
-0.0250926
-0.346304
-0.68031
-1.03518
-1.42895
-1.88553
-2.42891
-3.07665
-3.83373
-4.6881
-5.60875
-6.54672
-7.43931
-8.21675
-8.81069
-9.16316
-9.23487
-9.01152
-8.50738
-7.76541
-6.85403
-5.86064
-4.88291
-4.01857
-3.35512
-2.96048
-2.8758
-3.11115
-3.64462
-4.42491
-5.37696
-6.41008
-7.42745
-8.33605
-9.05573
-9.52663
-9.71391
-9.60963
-9.23136
-8.6182
-7.82455
-6.91286
-5.94608
-4.98111
-4.06382
-3.22623
-2.48601
-1.84809
-1.30779
-0.854925
-0.477912
-0.167261
0.0821697
0.270448
0.393366
0.444506
0.418049
0.311753
0.129439
-0.117491
-0.409859
-0.721912
-1.02377
-1.28478
-1.47716
-1.57954
-1.57969
-1.47618
-1.27854
-1.00617
-0.685879
-0.348591
-0.0256012
0.255076
0.471773
0.611257
0.669599
0.651799
0.570324
0.442854
0.289637
0.130839
-0.0157632
-0.136493
-0.222746
-0.271218
-0.283455
-0.264894
-0.223576
-0.16876
-0.109601
-0.054066
-0.00815759
0.0244957
0.0427393
0.047775
0.0429813
0.0338344
0.0280388
0.0358729
0.0706137
0.148793
0.289988
0.515905
0.848644
1.30824
1.90975
2.66035
3.55695
4.58473
5.71707
6.91686
8.1393
9.33574
10.4582
11.464
12.3202
13.0064
13.5171
13.8614
14.0617
14.1503
14.1651
14.1443
14.121
14.1187
14.1469
14.1995
14.2538
14.2719
14.204
13.9924
13.5779
12.9056
11.9317
10.6289
8.99052
7.03263
4.79347
2.33009
-0.287383
-2.98304
-5.68291
-8.32138
-10.8449
-13.2114
-15.3861
-17.3331
-19.0059
-20.3379
-21.2381
-21.5913
-21.2667
-20.133
-18.0791
-15.0367
-11.0012
-6.04812
-0.33974
5.87728
12.2857
18.5201
24.1966
28.9445
32.4379
34.423
34.7395
33.3349
30.2744
25.7468
20.0723
13.7142
7.29731
1.6306
-2.27118
-3.18055
0.318715
9.7587
26.6521
52.293
87.5076
132.389
186.06
246.53
310.67
374.37
432.857
481.157
514.649
529.627
523.803
496.651
449.557
385.732
309.903
227.812
145.602
69.1535
3.47128
-47.8051
-82.7153
-101.08
-104.39
-95.5114
-78.2487
-56.8344
-35.4096
-17.5599
-5.95842
-2.14935
-6.4866
-18.2201
-35.7054
-56.6997
-78.6989
-99.2721
-116.351
-128.443
-134.757
-135.22
-130.411
-121.419
-109.651
-96.6261
-83.7736
-72.2666
-62.9065
-56.0661
-51.6937
-49.3717
-48.4144
-47.9907
-47.2524
-45.4503
-42.0257
-36.6669
-29.3278
-20.2092
-9.71025
1.64171
13.2703
24.6276
35.2596
44.8527
53.2564
60.4829
66.6861
72.1253
77.1205
82.0063
87.0908
92.625
98.7832
105.658
113.263
121.55
130.424
139.759
149.417
159.253
169.117
178.851
188.279
197.198
205.367
212.508
218.3
222.393
224.422
224.027
220.88
214.715
205.365
192.789
177.106
158.611
137.787
115.292
91.9379
68.6354
46.3385
25.9681
8.33654
-5.92301
-16.4127
-23.0052
-25.8516
-25.3633
-22.1666
-17.0371
-10.8219
-4.35667
1.61085
6.48409
9.8607
11.5519
11.5775
10.1393
7.57695
4.31273
0.793273
-2.56593
-5.42631
-7.55827
-8.85684
-9.34085
-9.13714
-8.45334
-7.54352
-6.67157
-6.07717
-5.94823
-6.40259
-7.48066
-9.14857
-11.3107
-13.829
-16.5454
-19.3056
-21.9782
-24.4704
-26.7358
-28.7746
-30.6282
-32.3672
-34.0766
-35.8398
-37.7235
-39.766
-41.9695
-44.298
-46.68
-49.0154
-51.1867
-53.0704
-54.5501
-55.527
-55.9281
-55.7111
-54.8647
-53.4053
-51.3706
-48.8123
-45.7885
-42.3584
-38.58
-34.511
-30.212
-25.7519
-21.2126
-16.6916
-12.3021
-8.16859
-4.41917
-1.17454
1.46393
3.42587
4.68117
5.2454
5.18032
4.58936
3.60855
2.3941
1.1083
-0.0944178
-1.07959
-1.74179
-2.00982
-1.84795
-1.25348
-0.251551
1.11191
2.778
4.68231
6.76139
8.9574
11.221
13.512
15.7989
18.0565
20.2637
22.4011
24.4488
26.3857
28.1896
29.8384
31.3119
32.5942
33.6756
34.5542
35.236
35.7345
36.069
36.2617
36.3347
36.3073
36.1927
35.9972
35.7193
35.3504
34.8766
34.2815
33.5492
32.6669
31.6276
30.4315
29.0865
27.6078
26.0162
24.3359
22.5922
20.8093
19.0077
17.2039
15.4099
13.634
11.8827
10.1629
8.48377
6.85898
5.30693
3.85052
2.51515
1.32573
0.302821
-0.541395
-1.2067
-1.70739
-2.07329
-2.34899
-2.59122
-2.86449
-3.23545
-3.76647
-4.50902
-5.49765
-6.74516
-8.23964
-9.94398
-11.7979
-13.7226
-15.6282
-17.4222
-19.0194
-20.3511
-21.3731
-22.071
-22.4627
-22.5966
-22.5465
-22.4032
-22.2636
-22.2186
-22.3422
-22.6813
-23.2499
-24.027
-24.9584
-25.9641
-26.9482
-27.8109
-28.4614
-28.829
-28.8711
-28.5781
-27.9723
-27.1033
-26.0389
-24.8546
-23.6212
-22.3945
-21.2069
-20.0642
-18.9455
-17.8094
-16.6022
-15.2695
-13.7681
-12.076
-10.1995
-8.17633
-6.0733
-3.98015
-1.99917
-0.232926
1.22848
2.31869
3.0034
3.28441
3.1991
2.81531
2.22254
1.5208
0.808611
0.171971
-0.324397
-0.642342
-0.771677
-0.72769
-0.545376
-0.271439
0.0446631
0.35925
0.641306
0.876831
1.0702
1.24262
1.42811
1.66808
2.00539
2.47911
3.12099
3.95392
4.99266
6.2461
7.71985
9.41801
11.3425
13.4893
15.8415
18.36
20.9737
23.5711
25.9968
28.0541
29.5174
30.1529
29.7507
28.1664
25.3713
21.5099
16.9586
12.3799
8.75835
7.404
9.90621
18.0233
33.5017
57.8315
91.9621
136.017
189.06
248.967
312.443
375.213
432.381
478.913
510.206
522.644
514.072
484.122
434.332
368.037
290.056
206.194
122.64
45.3231
-20.677
-71.6143
-105.385
-121.638
-121.687
-108.241
-84.995
-56.1461
-25.893
2.02187
24.6745
40.1911
47.8336
47.9429
41.7582
31.1474
18.29
5.35564
-5.78105
-13.7566
-17.8465
-17.9961
-14.7608
-9.17159
-2.54975
3.69918
8.28504
10.2004
8.83715
4.0422
-3.88983
-14.2799
-26.1707
-38.4595
-50.0364
-59.9133
-67.3251
-71.7964
-73.1664
-71.5742
-67.4106
-61.2435
-53.7315
-45.5345
-37.2345
-29.2731
-21.9139
-15.2285
-9.10798
-3.29374
2.57669
8.91664
16.1363
24.5936
34.5553
46.1698
59.4539
74.2928
90.4512
107.593
125.309
143.142
160.621
177.282
192.693
206.467
218.272
227.83
234.913
239.335
240.94
239.598
235.203
227.68
217.003
203.22
186.482
167.067
145.403
122.074
97.8006
73.4123
49.793
27.8154
8.26906
-8.20918
-21.1934
-30.5071
-36.2373
-38.7213
-38.508
-36.2976
-32.8678
-28.9948
-25.3776
-22.5757
-20.9653
-20.719
-21.8094
-24.0343
-27.0604
-30.4774
-33.856
-36.8032
-39.0068
-40.2664
-40.5071
-39.7771
-38.2287
-36.0892
-33.6248
-31.1026
-28.7567
-26.7616
-25.2155
-24.1356
-23.4639
-23.0825
-22.8354
-22.5536
-22.0794
-21.2882
-20.1035
-18.5054
-16.5304
-14.2644
-11.8292
-9.36607
-7.01652
-4.90557
-3.12751
-1.73673
-0.74445
-0.121078
0.196274
0.292655
0.262224
0.195159
0.16626
0.226599
0.399079
0.678175
1.03354
1.41667
1.76954
2.03384
2.15961
2.11213
1.87649
1.45933
0.887805
0.206196
-0.529318
-1.25701
-1.91624
-2.45371
-2.8286
-3.01622
-3.0098
-2.82033
-2.47462
-2.01187
-1.47908
-0.92604
-0.400232
0.0576116
0.417006
0.659876
0.781257
0.78857
0.699643
0.539795
0.338383
0.125233
-0.0726216
-0.23358
-0.343221
-0.395068
-0.390362
-0.336978
-0.247693
-0.138074
-0.0242762
0.078979
0.160027
0.211329
0.229917
0.217241
0.178478
0.121475
0.0554743
-0.0101772
-0.0671533
-0.108936
-0.131124
-0.131159
-0.10746
-0.0580232
0.0213258
0.138742
0.307891
0.548809
0.88778
1.35604
1.98731
2.81444
3.86551
5.15979
6.70414
8.48983
10.4902
12.659
14.9296
17.2153
19.4115
21.3991
23.0501
24.2359
24.8361
24.7494
23.9037
22.2648
19.8433
16.6971
12.9307
8.68985
4.15218
-0.48438
-5.01543
-9.24415
-12.9945
-16.1223
-18.5239
-20.1407
-20.9612
-21.0187
-20.3866
-19.1707
-17.5005
-15.5183
-13.369
-11.1902
-9.10304
-7.20527
-5.56629
-4.22495
-3.1898
-2.44208
-1.94081
-1.62958
-1.44417
-1.32036
-1.2009
-1.04105
-0.812127
-0.50256
-0.116709
0.328482
0.80834
1.29608
1.76831
2.2096
2.61538
2.99276
3.35913
3.73881
4.1583
4.6409
5.20164
5.84325
6.55392
7.30727
8.0646
8.77911
9.40167
9.88709
10.2002
10.3204
10.2445
9.98693
9.57757
9.0572
8.47182
7.86608
7.27715
6.72966
6.23264
5.77871
5.34562
4.89984
4.40157
3.8104
3.09082
2.21682
1.17512
-0.0334516
-1.39433
-2.8813
-4.45982
-6.09097
-7.73545
-9.35695
-10.9244
-12.4129
-13.8028
-15.0786
-16.2251
-17.2254
-18.0573
-18.6915
-19.0904
-19.2091
-18.997
-18.4013
-17.3719
-15.8663
-13.8554
-11.33
-8.30557
-4.82702
-0.971763
3.14926
7.39273
11.5863
15.534
19.0241
21.8382
23.7639
24.6105
24.2304
22.5491
19.6038
15.5927
10.93
6.29988
2.69347
1.41338
4.02513
12.242
27.7378
51.8986
85.5381
128.621
180.047
237.537
297.683
356.154
408.074
448.517
473.069
478.38
462.618
425.767
369.717
298.13
216.089
129.579
44.863
-32.1641
-96.5732
-144.867
-175.27
-187.813
-184.21
-167.553
-141.876
-111.645
-81.2352
-54.4672
-34.243
-22.3223
-19.2503
-24.4326
-36.3344
-52.7689
-71.2316
-89.2366
-104.615
-115.742
-121.677
-122.204
-117.778
-109.396
-98.4157
-86.3434
-74.6265
-64.4734
-56.7194
-51.7528
-49.5045
-49.496
-50.9363
-52.8488
-54.2118
-54.092
-51.7566
-46.7504
-38.9323
-28.4712
-15.8032
-1.56137
13.5129
28.6628
43.2041
56.5956
68.4881
78.747
87.4494
94.8572
101.373
107.482
113.693
120.473
128.197
137.108
147.293
158.676
171.035
184.024
197.216
210.148
222.362
233.446
243.059
250.942
256.922
260.895
262.804
262.609
260.267
255.709
248.834
239.521
227.649
213.13
195.95
176.206
154.138
130.143
104.775
78.7226
52.772
27.75
4.46335
-16.3658
-34.1584
-48.5248
-59.2929
-66.5174
-70.4661
-71.5884
-70.4677
-67.7642
-64.1539
-60.2705
-56.6554
-53.7205
-51.7271
-50.78
-50.8376
-51.7349
-53.2154
-54.9687
-56.6684
-58.0074
-58.728
-58.6425
-57.6453
-55.7159
-52.9124
-49.3588
-45.2277
-40.7193
-36.0418
-31.3922
-26.9413
-22.8226
-19.1265
-15.8983
-13.1415
-10.8233
-8.8831
-7.24166
-5.81158
-4.50686
-3.25214
-1.9906
-0.690369
0.651159
2.00577
3.31609
4.5011
5.4654
6.11181
6.35596
6.14104
5.45032
4.31542
2.8182
1.08563
-0.722447
-2.43109
-3.87149
-4.90253
-5.4296
-5.41789
-4.89813
-3.9638
-2.75998
-1.46533
-0.269458
0.651359
1.15688
1.16108
0.643341
-0.348768
-1.70558
-3.26936
-4.85446
-6.27079
-7.34755
-7.95401
-8.01486
-7.51807
-6.51468
-5.11072
-3.45278
-1.70909
-0.0490146
1.37662
2.45178
3.10646
3.3217
3.1283
2.59983
1.84124
0.974746
0.124906
-0.595213
-1.09525
-1.31501
-1.22756
-0.838045
-0.178774
0.698412
1.73127
2.8564
4.01747
5.17128
6.29107
7.36683
8.40267
9.41187
10.4105
11.4108
12.4152
13.4122
14.3746
15.2609
16.0183
16.5892
16.9176
16.9574
16.6785
16.0727
15.1561
13.9695
12.5754
11.0531
9.4915
7.98037
6.60198
5.42292
4.48746
3.81302
3.38817
3.17358
3.10563
3.10254
3.0723
2.92166
2.56537
1.93458
0.983816
-0.304409
-1.91753
-3.8138
-5.92573
-8.16596
-10.4346
-12.6274
-14.6444
-16.3973
-17.8158
-18.8522
-19.4838
-19.7128
-19.564
-19.0812
-18.3214
-17.3484
-16.2271
-15.0166
-13.7661
-12.5112
-11.272
-10.054
-8.84979
-7.6426
-6.41074
-5.13251
-3.79094
-2.37789
-0.897117
0.63417
2.18529
3.71379
5.16861
6.4945
7.63715
8.54853
9.19187
9.54574
9.60673
9.39039
8.93032
8.27545
7.48575
6.62691
5.76457
4.95873
4.25897
3.70102
3.30486
3.07463
3.0002
3.05997
3.22463
3.46137
3.73788
4.02593
4.30391
4.55851
4.78504
4.98682
5.17349
5.35859
5.55637
5.77806
6.02765
6.29729
6.56289
6.78042
6.88382
6.78532
6.37914
5.54877
4.17789
2.16427
-0.564897
-4.03767
-8.22456
-13.0301
-18.2906
-23.7793
-29.2193
-34.3025
-38.7142
-42.1603
-44.3935
-45.2377
-44.6058
-42.5113
-39.071
-34.4997
-29.0967
-23.2258
-17.291
-11.7083
-6.8784
-3.15996
-0.846276
-0.145639
-1.16511
-3.89595
-8.1978
-13.778
-20.1634
-26.6656
-32.3449
-35.9841
-36.0924
-30.958
-18.7684
2.19289
33.2833
75.1969
127.669
189.245
257.177
327.488
395.228
454.919
501.121
529.075
535.311
518.141
477.957
417.286
340.581
253.778
163.664
77.1556
0.557459
-61.0812
-104.452
-128.251
-133.196
-121.82
-98.0529
-66.6848
-32.7593
-0.987501
24.7518
41.7719
48.7653
45.8103
34.212
16.2111
-5.39084
-27.6373
-47.8003
-63.6967
-73.9053
-77.8669
-75.8663
-68.911
-58.5308
-46.5306
-34.7329
-24.7423
-17.759
-14.4606
-14.9605
-18.8406
-25.248
-33.0376
-40.9385
-47.7215
-52.3474
-54.0774
-52.538
-47.7341
-40.014
-29.9967
-18.4705
-6.28186
5.77427
17.0472
27.0977
35.7332
43.0106
49.2082
54.775
60.2647
66.2646
73.3281
81.9183
92.3672
104.853
119.393
135.859
153.989
173.425
193.731
214.428
235.006
254.942
273.704
290.753
305.546
317.543
326.211
331.052
331.623
327.572
318.673
304.867
286.285
263.272
236.392
206.419
174.301
141.116
108.01
76.1198
46.4997
20.0486
-2.55048
-20.8738
-34.7771
-44.3914
-50.0957
-52.4681
-52.2218
-50.1334
-46.9696
-43.4214
-40.0516
-37.26
-35.2696
-34.132
-33.7519
-33.9245
-34.3808
-34.8352
-35.029
-34.7651
-33.9308
-32.5072
-30.5652
-28.2501
-25.7575
-23.305
-21.1033
-19.3295
-18.1074
-17.4947
-17.4791
-17.9832
-18.8759
-19.9891
-21.138
-22.1412
-22.839
-23.1087
-22.8743
-22.111
-20.8433
-19.1391
-17.099
-14.8433
-12.4993
-10.188
-8.01403
-6.05846
-4.3747
-2.98819
-1.89889
-1.08597
-0.513827
-0.138436
0.0865951
0.20507
0.254604
0.264573
0.255516
0.239763
0.222926
0.205874
0.186806
0.163115
0.132816
0.0954308
0.052301
0.0064114
-0.038152
-0.076945
-0.10594
-0.122182
-0.124199
-0.112088
-0.0872416
-0.0517239
-0.0073848
0.0451477
0.107399
0.18368
0.281211
0.409591
0.579584
0.80131
1.0821
1.42434
1.82381
2.26887
2.74087
3.21596
3.66799
4.0722
4.40877
4.66573
4.84033
4.93862
4.97318
4.95942
4.9109
4.83479
4.72812
4.57564
4.34995
4.01414
3.52663
2.84793
1.94826
0.815104
-0.540512
-2.08017
-3.7374
-5.42077
-7.02075
-8.41975
-9.50434
-10.1781
-10.3734
-10.0602
-9.25123
-8.00133
-6.40252
-4.57399
-2.64904
-0.76051
0.973451
2.46114
3.64522
4.50576
5.05819
5.34668
5.43419
5.39081
5.28217
5.1597
5.05402
4.97226
4.8995
4.80384
4.64414
4.37908
3.97601
3.41817
2.70918
1.87403
0.956627
0.0141806
-0.890451
-1.69739
-2.35795
-2.84118
-3.13793
-3.2616
-3.24579
-3.13904
-2.99745
-2.87639
-2.82243
-2.86653
-3.01967
-3.27122
-3.59046
-3.93083
-4.2364
-4.44955
-4.51889
-4.40629
-4.0922
-3.57846
-2.88832
-2.06379
-1.1605
-0.240862
0.633527
1.4094
2.04808
2.52979
2.8553
3.0448
3.13402
3.1683
3.1954
3.25796
3.38683
3.59618
3.881
4.21752
4.5663
4.87768
5.09883
5.18123
5.08769
4.79785
4.31146
3.64899
2.84963
1.96707
1.06351
0.203044
-0.555064
-1.16208
-1.58411
-1.80451
-1.82438
-1.66135
-1.347
-0.923333
-0.43902
0.0544332
0.506132
0.868805
1.10137
1.17112
1.05572
0.744942
0.242262
-0.433902
-1.24947
-2.15479
-3.08576
-3.96616
-4.71117
-5.23178
-5.43958
-5.25141
-4.59318
-3.40253
-1.63058
0.75704
3.77903
7.4364
11.709
16.5502
21.8804
27.5788
33.477
39.3528
44.9304
49.8849
53.8562
56.4705
57.3726
56.2663
52.9641
47.4452
39.9184
30.8876
21.2087
12.1281
5.28146
2.63489
6.35155
18.5758
41.1443
75.251
121.115
177.708
242.606
312.019
381.014
443.94
495.007
528.948
541.676
530.835
496.169
439.639
365.28
278.787
186.92
96.7605
14.9596
-52.9589
-103.136
-133.705
-144.869
-138.737
-118.957
-90.1847
-57.4835
-25.7216
0.959894
19.5466
28.3823
27.2197
17.0977
0.0788843
-21.1102
-43.4827
-64.1849
-80.8343
-91.7648
-96.1597
-94.0666
-86.3043
-74.2841
-59.7757
-44.6524
-30.6493
-19.1624
-11.1105
-6.87082
-6.28779
-8.74849
-13.3073
-18.8398
-24.2035
-28.3838
-30.609
-30.4221
-27.7044
-22.6532
-15.7208
-7.52652
1.24423
9.93904
18.024
25.1458
31.1653
36.1613
40.4078
44.3295
48.4429
53.292
59.3835
67.131
76.8105
88.5309
102.221
117.634
134.367
151.892
169.597
186.833
202.962
217.394
229.626
239.256
246.001
249.682
250.221
247.612
241.908
233.2
221.612
207.304
190.485
171.43
150.505
128.18
105.032
81.7292
59.0016
37.5901
18.1875
1.37682
-12.4254
-23.0096
-30.3934
-34.8159
-36.708
-36.6422
-35.2677
-33.2405
-31.1567
-29.4969
-28.5887
-28.5894
-29.4898
-31.137
-33.2714
-35.5716
-37.7017
-39.3552
-40.2897
-40.3511
-39.4834
-37.7278
-35.2087
-32.1132
-28.6651
-25.0975
-21.6279
-18.4381
-15.6594
-13.3667
-11.5785
-10.2632
-9.35002
-8.74267
-8.3331
-8.01448
-7.69155
-7.28775
-6.74887
-6.04367
-5.16197
-4.1113
-2.91288
-1.59767
-0.203208
1.22872
2.65349
4.02455
5.29412
6.41442
7.33948
8.02792
8.44635
8.57304
8.40128
7.94171
7.22319
6.29175
5.20765
4.0407
2.86439
1.74953
0.758167
-0.0613889
-0.677882
-1.07839
-1.26748
-1.26442
-1.09898
-0.806348
-0.42207
0.0223369
0.502385
1.00181
1.51187
2.02893
2.55088
3.07301
3.58424
4.06423
4.48205
4.79663
4.95909
4.91657
4.61717
4.01533
3.0768
1.78276
0.13252
-1.8552
-4.14222
-6.67173
-9.36969
-12.1464
-14.8989
-17.5134
-19.87
-21.8478
-23.333
-24.2267
-24.4545
-23.9748
-22.7853
-20.9263
-18.4798
-15.5655
-12.3311
-8.94093
-5.56225
-2.35173
0.556578
3.06024
5.0937
6.6293
7.67446
8.26551
8.4595
8.32501
7.93331
7.35096
6.63452
5.82779
4.9616
4.05562
3.12167
2.16762
1.20118
0.232845
-0.722433
-1.64501
-2.51171
-3.29801
-3.98083
-4.54135
-4.96734
-5.25447
-5.40662
-5.4348
-5.35522
-5.18667
-4.94783
-4.65495
-4.32044
-3.95244
-3.55555
-3.13236
-2.68552
-2.21962
-1.74276
-1.26714
-0.80869
-0.385809
-0.0173005
0.280006
0.493586
0.617101
0.651512
0.605244
0.493379
0.336003
0.155951
-0.023703
-0.182036
-0.302191
-0.372544
-0.386975
-0.344313
-0.24717
-0.10055
0.0893446
0.315739
0.571156
0.84657
1.13015
1.40606
1.65386
1.849
1.96457
1.97443
1.85714
1.60024
1.20391
0.683353
0.0691769
-0.594436
-1.25378
-1.85132
-2.3323
-2.65116
-2.77682
-2.6959
-2.41337
-1.95037
-1.33979
-0.620055
0.17141
1.00416
1.85882
2.72851
3.61742
4.53655
5.49757
6.50588
7.55419
8.61803
9.65404
10.6017
11.388
11.9357
12.1719
12.0376
11.4964
10.5398
9.18978
7.49785
5.54016
3.41017
1.20957
-0.961105
-3.01081
-4.86371
-6.46126
-7.75999
-8.72509
-9.32092
-9.50067
-9.19773
-8.32164
-6.76075
-4.3927
-1.10238
3.19449
8.52517
14.8352
21.9693
29.6624
37.5435
45.1542
51.9823
57.507
61.2523
62.8425
62.0544
58.8605
53.4609
46.3019
38.0839
29.7598
22.5243
17.7896
17.141
22.2591
34.7978
56.2123
87.5418
129.167
180.582
240.217
305.373
372.297
436.415
492.721
536.275
562.748
568.954
553.273
515.908
458.949
386.205
302.839
214.848
128.45
49.4532
-17.3116
-68.4301
-102.171
-118.553
-119.215
-107.111
-86.0932
-60.4103
-34.2182
-11.1347
6.09942
15.8288
17.5448
11.8076
0.0517473
-15.6925
-33.1183
-49.9611
-64.2785
-74.6605
-80.3515
-81.2771
-77.9818
-71.4918
-63.1301
-54.3082
-46.3269
-40.2083
-36.5809
-35.6262
-37.0903
-40.3528
-44.539
-48.6575
-51.7415
-52.9761
-51.7939
-47.9304
-41.4338
-32.6327
-22.0697
-10.4128
1.64162
13.4599
24.5458
34.5889
43.4853
51.3279
58.3747
64.9986
71.6298
78.6983
86.5826
95.5722
105.843
117.448
130.32
144.285
159.085
174.394
189.845
205.051
219.623
233.18
245.36
255.824
264.253
270.346
273.823
274.418
271.888
266.028
256.689
243.805
227.428
207.758
185.167
160.214
133.638
106.333
79.2969
53.5668
30.1341
9.86097
-6.60025
-18.8695
-26.8767
-30.8688
-31.3827
-29.1892
-25.2119
-20.4322
-15.791
-12.0992
-9.96542
-9.75072
-11.5521
-15.216
-20.378
-26.5224
-33.0523
-39.363
-44.9082
-49.2537
-52.1119
-53.3579
-53.0244
-51.2814
-48.4021
-44.7229
-40.6015
-36.3782
-32.3447
-28.7226
-25.653
-23.1965
-21.3414
-20.0192
-19.1233
-18.5287
-18.1099
-17.7554
-17.3776
-16.917
-16.3428
-15.6485
-14.8457
-13.9565
-13.0062
-12.0176
-11.0076
-9.98496
-8.95218
-7.90756
-6.84897
-5.77753
-4.70057
-3.63332
-2.59895
-1.6269
-0.749881
0.000158316
0.59619
1.01996
1.26479
1.33704
1.25585
1.05137
0.761677
0.428758
0.0941617
-0.20514
-0.440188
-0.592373
-0.654467
-0.630283
-0.533122
-0.383261
-0.204878
-0.0227957
0.140511
0.267347
0.346404
0.373438
0.351021
0.287497
0.195333
0.0891539
-0.0162954
-0.107977
-0.175989
-0.21445
-0.221798
-0.200518
-0.156395
-0.0974406
-0.032653
0.0292128
0.0807123
0.116502
0.133783
0.132377
0.114471
0.0840871
0.0463823
0.00688109
-0.0292581
-0.057851
-0.0761088
-0.0828395
-0.0784273
-0.0646164
-0.0441463
-0.020302
0.00355749
0.024429
0.0400049
0.0488896
0.0506773
0.0458981
0.0358519
0.0223627
0.0074935
-0.00673797
-0.0186071
-0.026861
-0.0308032
-0.0302656
-0.0254578
-0.0167029
-0.00409395
0.0128658
0.0355494
0.0663175
0.108362
0.165227
0.240012
0.334339
0.447252
0.574247
0.706697
0.831898
0.933885
0.995082
0.998613
0.931011
0.784852
0.560858
0.269014
-0.0715923
-0.4343
-0.787628
-1.0989
-1.33822
-1.48223
-1.51715
-1.4405
-1.26149
-0.999854
-0.683389
-0.344538
-0.0165329
0.270408
0.492315
0.633774
0.689067
0.662094
0.565181
0.416992
0.239904
0.0571834
-0.109643
-0.242932
-0.330378
-0.365706
-0.348644
-0.284321
-0.182256
-0.0551177
0.0826055
0.215956
0.330808
0.415077
0.459784
0.459888
0.414804
0.328503
0.20917
0.0683876
-0.080069
-0.221706
-0.342868
-0.432172
-0.481583
-0.486974
-0.448029
-0.367507
-0.249941
-0.0999977
0.0792303
0.287673
0.529162
0.811478
1.14544
1.54308
2.01501
2.56754
3.19977
3.90136
4.65131
5.41809
6.16131
6.8348
7.391
7.78601
7.98507
7.96749
7.7307
7.29265
6.69227
5.98779
5.253
4.57179
4.03161
3.7165
3.70057
4.04262
4.7825
5.93952
7.51298
9.48436
11.8206
14.4776
17.4035
20.5403
23.8243
27.1848
30.5419
33.8037
36.8636
39.5995
41.8744
43.5393
44.4395
44.4227
43.3515
41.118
37.6634
33.0024
27.254
20.6809
13.7343
7.10124
1.74386
-1.08487
0.13288
7.09399
21.5174
44.9176
78.3286
122.014
175.215
235.994
301.219
366.715
427.593
478.717
515.258
533.267
530.171
505.137
459.242
395.417
318.179
233.173
146.592
64.5368
-7.59171
-65.6118
-106.918
-130.651
-137.663
-130.293
-112.005
-86.9119
-59.2765
-33.0347
-11.3984
3.42211
10.3527
9.44578
1.73992
-10.9824
-26.4993
-42.4737
-56.7567
-67.6343
-73.9945
-75.4016
-72.0785
-64.8088
-54.7792
-43.388
-32.0473
-22.0031
-14.1956
-9.17138
-7.05403
-7.57032
-10.1236
-13.9002
-17.9928
-21.5234
-23.7509
-24.1517
-22.4652
-18.7026
-13.1199
-6.16263
1.60901
9.60444
17.2849
24.2346
30.2125
35.1813
39.3097
42.9507
46.5975
50.8235
56.2125
63.2884
72.4503
83.9226
97.7226
113.651
131.307
150.116
169.387
188.367
206.302
222.502
236.377
247.476
255.486
260.235
261.663
259.79
254.688
246.454
235.196
221.04
204.142
184.726
163.112
139.749
115.228
90.2821
65.7514
42.5352
21.519
3.49399
-10.9246
-21.3656
-27.7491
-30.302
-29.5408
-26.2202
-21.254
-15.6181
-10.2464
-5.93397
-3.25924
-2.53498
-3.79443
-6.81294
-11.1616
-16.284
-21.5851
-26.5182
-30.6586
-33.7523
-35.7354
-36.7207
-36.9572
-36.769
-36.4857
-36.3758
-36.5943
-37.153
-37.9186
-38.6361
-38.9762
-38.5951
-37.1991
-34.6023
-30.7675
-25.8254
-20.0673
-13.9132
-7.86086
-2.42117
1.9476
4.89923
6.24319
5.96634
4.23048
1.34632
-2.27118
-6.15925
-9.86662
-13.0073
-15.3014
-16.5985
-16.8818
-16.2533
-14.9062
-13.0868
-11.0556
-9.05073
-7.25962
-5.80204
-4.72486
-4.00788
-3.57829
-3.33031
-3.14646
-2.91693
-2.55474
-2.00516
-1.2493
-0.30259
0.790421
1.96329
3.13546
4.21959
5.12815
5.77939
6.10313
6.04679
5.5815
4.70779
3.4598
1.90687
0.151393
-1.6773
-3.43314
-4.96657
-6.13937
-6.83935
-6.99302
-6.5746
-5.61011
-4.17595
-2.39214
-0.410815
1.59876
3.46679
5.03964
6.19458
6.85128
6.97873
6.59698
5.77356
4.61493
3.25392
1.83452
0.495659
-0.644282
-1.50028
-2.02939
-2.23422
-2.16042
-1.8887
-1.52199
-1.16972
-0.931404
-0.881847
-1.06023
-1.46464
-2.05274
-2.74831
-3.45265
-4.05881
-4.46676
-4.5972
-4.40217
-3.87129
-3.03297
-1.95081
-0.715795
0.564269
1.77693
2.81711
3.59783
4.05832
4.16902
3.93301
3.38401
2.58152
1.60377
0.539355
-0.52142
-1.49467
-2.30987
-2.91504
-3.27987
-3.39667
-3.27923
-2.95988
-2.48508
-1.91008
-1.29319
-0.690257
-0.149708
0.29119
0.608815
0.794197
0.852687
0.802476
0.672268
0.498367
0.321431
0.183035
0.122225
0.172168
0.357103
0.689818
1.16989
1.78294
2.50114
3.28501
4.08664
4.85409
5.53667
6.09067
6.48486
6.70501
6.75687
6.66696
6.48105
6.26023
6.075
5.99803
6.09645
6.42452
7.01774
7.88897
9.02716
10.3987
11.9511
13.6185
15.3286
17.0084
18.5908
20.0178
21.2431
22.2317
22.9582
23.4035
23.5522
23.3892
22.8989
22.0647
20.8709
19.3055
17.3637
15.0519
12.3905
9.41637
6.18349
2.76186
-0.764485
-4.30079
-7.74547
-10.9944
-13.9452
-16.5014
-18.576
-20.0956
-21.0029
-21.2593
-20.8466
-19.7684
-18.049
-15.733
-12.8827
-9.57667
-5.90688
-1.97775
2.09462
6.18254
10.1465
13.8357
17.0896
19.7419
21.6262
22.5856
22.483
21.2147
18.7248
15.0204
10.1882
4.41188
-2.00735
-8.62787
-14.8415
-19.8482
-22.6375
-21.9897
-16.5092
-4.70717
14.8575
43.3781
81.5559
129.342
185.713
248.528
314.522
379.456
438.443
486.407
518.645
531.393
522.337
490.974
438.773
369.108
286.953
198.39
109.979
28.0748
-41.8231
-95.6062
-130.922
-147.323
-146.195
-130.485
-104.264
-72.1991
-38.9918
-8.86144
14.8756
30.0834
35.9219
32.7984
22.1779
6.28492
-12.2539
-30.7795
-46.9344
-58.925
-65.6846
-66.9299
-63.111
-55.2755
-44.8703
-33.5124
-22.7623
-13.9267
-7.91372
-5.15298
-5.58488
-8.71287
-13.7064
-19.5364
-25.1231
-29.4769
-31.8144
-31.6384
-28.7745
-23.3648
-15.8211
-6.75015
3.14018
13.1385
22.6196
31.1162
38.3648
44.3239
49.1639
53.2341
57.0108
61.0359
65.8518
71.9398
79.6679
89.252
100.732
113.968
128.649
144.317
160.409
176.3
191.35
204.954
216.581
225.806
232.324
235.958
236.645
234.413
229.361
221.622
211.35
198.705
183.857
166.996
148.356
128.234
107.009
85.1458
63.1881
41.7332
21.3954
2.7591
-13.6708
-27.5144
-38.5518
-46.7435
-52.2319
-55.3243
-56.4594
-56.1607
-54.9839
-53.4625
-52.0594
-51.1294
-50.8953
-51.4405
-52.7168
-54.5667
-56.7546
-59.0043
-61.037
-62.6055
-63.5214
-63.6722
-63.0276
-61.6356
-59.6092
-57.1072
-54.3116
-51.404
-48.5457
-45.8621
-43.433
-41.2897
-39.4188
-37.7695
-36.2657
-34.8182
-33.3376
-31.7451
-29.9804
-28.0072
-25.8148
-23.4175
-20.8513
-18.1696
-15.4378
-12.7275
-10.1112
-7.65741
-5.42584
-3.46401
-1.80416
-0.461301
0.567514
1.30259
1.77943
2.04509
2.15329
2.1587
2.11111
2.05006
2.00081
1.97217
1.9567
1.93324
1.87183
1.74011
1.51055
1.16729
0.711404
0.163607
-0.436112
-1.03211
-1.55936
-1.95147
-2.14899
-2.10667
-1.79848
-1.21974
-0.386172
0.66943
1.90177
3.25764
4.67927
6.10564
7.47176
8.70662
9.73125
10.4587
10.7976
10.6602
9.97477
8.70073
6.84393
4.46875
1.70397
-1.26
-4.18344
-6.79841
-8.83633
-10.0585
-10.2854
-9.42063
-7.46581
-4.525
-0.797004
3.44305
7.87062
12.144
15.9379
18.9746
21.0496
22.048
21.9519
20.8371
18.8607
16.2414
13.2344
10.1043
7.09906
4.42744
2.24155
0.626965
-0.399653
-0.885352
-0.92915
-0.665362
-0.244125
0.188505
0.508515
0.627875
0.502889
0.136104
-0.428234
-1.11436
-1.82924
-2.47877
-2.98357
-3.29225
-3.3901
-3.30216
-3.09032
-2.84483
-2.67158
-2.67707
-2.95326
-3.56467
-4.53948
-5.86595
-7.4942
-9.34293
-11.3095
-13.2814
-15.1483
-16.8106
-18.1873
-19.2185
-19.8662
-20.1123
-19.955
-19.4055
-18.4854
-17.2248
-15.6624
-13.8461
-11.8338
-9.69376
-7.50368
-5.34795
-3.31327
-1.48267
0.0711222
1.29229
2.14734
2.6287
2.75567
2.57265
2.14465
1.5507
0.875853
0.20285
-0.395653
-0.863237
-1.16361
-1.28177
-1.22232
-1.00536
-0.660338
-0.219116
0.290986
0.852802
1.46268
2.13086
2.87855
3.73209
4.715
5.83939
7.09823
8.46016
9.86812
11.2423
12.4875
13.5037
14.1986
14.5001
14.3662
13.7918
12.8096
11.4872
9.91764
8.2085
6.46809
4.79302
3.25797
1.90961
0.765169
-0.184179
-0.966136
-1.61753
-2.17381
-2.6596
-3.08162
-3.42509
-3.65384
-3.71387
-3.53954
-3.06155
-2.21569
-0.951768
0.757712
2.90947
5.46199
8.32903
11.3747
14.4109
17.1993
19.4586
20.8794
21.1485
19.983
17.1746
12.6435
6.49965
-0.893005
-8.85751
-16.3612
-22.0061
-24.0692
-20.6109
-9.6583
10.5402
41.2121
82.7501
134.449
194.347
259.219
324.756
385.915
437.427
474.376
492.791
490.156
465.763
420.852
358.533
283.464
201.369
118.419
40.5885
-26.9558
-80.3462
-117.339
-137.437
-141.816
-133.057
-114.751
-91.0201
-66.0095
-43.4327
-26.2006
-16.1799
-14.095
-19.5736
-31.3157
-47.3551
-65.3735
-83.0237
-98.2229
-109.382
-115.553
-116.474
-112.536
-104.657
-94.1158
-82.3445
-70.7317
-60.4461
-52.3076
-46.7165
-43.6444
-42.6827
-43.1364
-44.1472
-44.8271
-44.3837
-42.221
-38.0052
-31.6897
-23.4991
-13.878
-3.41519
7.24708
17.5033
26.8652
35.0229
41.8796
47.5599
52.3902
56.8568
61.5477
67.0843
74.0519
82.9345
94.0607
107.566
123.371
141.185
160.524
180.749
201.122
220.864
239.219
255.515
269.208
279.913
287.41
291.634
292.644
290.585
285.637
277.976
267.745
255.038
239.91
222.407
202.604
180.66
156.859
131.643
105.619
79.5392
54.2607
30.6723
9.6165
-8.19497
-22.2555
-32.3182
-38.4233
-40.8939
-40.2998
-37.3967
-33.0447
-28.1195
-23.4261
-19.6242
-17.1745
-16.3101
-17.0356
-19.1509
-22.2966
-26.012
-29.8005
-33.1922
-35.7967
-37.3426
-37.6978
-36.8723
-35.0028
-32.3249
-29.1349
-25.7499
-22.4682
-19.5367
-17.1284
-15.3304
-14.144
-13.4954
-13.2535
-13.2537
-13.3217
-13.2965
-13.0492
-12.4949
-11.5988
-10.3752
-8.88049
-7.20309
-5.44981
-3.73234
-2.15462
-0.802393
0.26409
1.01402
1.44661
1.58883
1.49071
1.21908
0.850415
0.463318
0.131444
-0.0828102
-0.133323
0.00629457
0.341024
0.854612
1.51154
2.26059
3.0398
3.78221
4.42222
4.90163
5.17517
5.21457
5.01105
4.57574
3.93803
3.1421
2.24184
1.295
0.357073
-0.524298
-1.31358
-1.98983
-2.547
-2.992
-3.34089
-3.61387
-3.82985
-4.00169
-4.13275
-4.21543
-4.23193
-4.15691
-3.96164
-3.61881
-3.10711
-2.41489
-1.54223
-0.501408
0.684377
1.98346
3.35888
4.77179
6.18447
7.56272
8.87749
10.1057
11.2306
12.2416
13.1349
13.9127
14.584
15.1641
15.6729
16.1337
16.5687
16.9965
17.427
17.8591
18.2783
18.6578
18.96
19.1416
19.1586
18.9728
18.5573
17.9011
17.012
15.917
14.6607
13.3015
11.9063
10.5442
9.27959
8.16652
7.24312
6.5284
6.02077
5.69877
5.52387
5.44498
5.40437
5.34421
5.21299
4.97122
4.59568
4.08174
3.4434
2.71135
1.92889
1.14671
0.416748
-0.213702
-0.707277
-1.04038
-1.20524
-1.21012
-1.07755
-0.841085
-0.541037
-0.219623
0.0836855
0.336175
0.514806
0.607774
0.614644
0.545156
0.416974
0.252723
0.0767555
-0.0879666
-0.222508
-0.313871
-0.356048
-0.350217
-0.304159
-0.231056
-0.147876
-0.0735523
-0.0271706
-0.0263653
-0.0860663
-0.217694
-0.428814
-0.723191
-1.10112
-1.55989
-2.0942
-2.69655
-3.35735
-4.06502
-4.80606
-5.56517
-6.32566
-7.07012
-7.78142
-8.44396
-9.04502
-9.57596
-10.0332
-10.4184
-10.7384
-11.0042
-11.2292
-11.4275
-11.6116
-11.7911
-11.9707
-12.1503
-12.3249
-12.4857
-12.6221
-12.7231
-12.7796
-12.7857
-12.7394
-12.6419
-12.4963
-12.3054
-12.0688
-11.7806
-11.4277
-10.9891
-10.4369
-9.73881
-8.86163
-7.7752
-6.4563
-4.89163
-3.07941
-1.02949
1.23773
3.69321
6.30102
9.0193
11.7997
14.5852
17.3065
19.8779
22.1927
24.1223
25.5169
26.2131
26.0475
24.8783
22.6177
19.2737
15.0038
10.176
5.43021
1.7272
0.36768
2.95987
11.3176
27.279
52.4502
87.8993
133.843
189.382
252.346
319.296
385.717
446.387
495.901
529.275
542.551
533.32
501.074
447.347
375.608
290.932
199.469
107.806
22.2857
-51.6351
-109.894
-150.16
-171.96
-176.587
-166.823
-146.515
-120.06
-91.8796
-65.9326
-45.3273
-32.0692
-26.9617
-29.6574
-38.84
-52.5027
-68.2793
-83.7843
-96.9185
-106.107
-110.448
-109.759
-104.531
-95.8003
-84.962
-73.5546
-63.046
-54.646
-49.1677
-46.9503
-47.8492
-51.2882
-56.3622
-61.9742
-66.9857
-70.3607
-71.2855
-69.2523
-64.0981
-55.9984
-45.4215
-33.0505
-19.6866
-6.14521
6.84142
18.7065
29.1062
37.9485
45.3916
51.8138
57.7594
63.8678
70.7945
79.1327
89.3433
101.702
116.267
132.872
151.14
170.524
190.358
209.923
228.507
245.465
260.261
272.495
281.904
288.346
291.775
292.199
289.641
284.113
275.597
264.052
249.43
231.717
210.975
187.387
161.289
133.193
103.782
73.8816
44.4104
16.314
-9.51313
-32.3053
-51.4931
-66.7527
-78.0308
-85.5409
-89.7328
-91.2376
-90.797
-89.1833
-87.1225
-85.227
-83.9465
-83.5408
-84.077
-85.4478
-87.4095
-89.63
-91.7427
-93.3981
-94.3061
-94.2662
-93.1822
-91.0619
-88.0035
-84.1724
-79.7726
-75.0179
-70.1064
-65.2019
-60.4226
-55.8392
-51.4794
-47.3376
-43.3872
-39.5927
-35.9198
-32.3422
-28.8436
-25.418
-22.0656
-18.7898
-15.5932
-12.4763
-9.4374
-6.4759
-3.5955
-0.80859
1.86071
4.37556
6.68815
8.74439
10.491
11.884
12.8967
13.5271
13.8011
13.7725
13.5191
13.1341
12.7158
12.3546
12.1214
12.0576
12.169
12.4237
12.7558
13.0728
13.2678
13.233
12.8734
12.1197
10.937
9.32983
7.34218
5.05331
2.57008
0.0172061
-2.47346
-4.77338
-6.76665
-8.35761
-9.4764
-10.0824
-10.1655
-9.74541
-8.86925
-7.60735
-6.04813
-4.29197
-2.4448
-0.611574
1.10972
2.63328
3.88959
4.82818
5.41895
5.65222
5.5376
5.10205
4.38742
3.44766
2.34592
1.15163
-0.0627079
-1.22476
-2.2659
-3.12483
-3.75113
-4.10846
-4.17689
-3.95417
-3.45545
-2.71152
-1.76548
-0.668296
0.526217
1.76637
3.00681
4.21132
5.35398
6.41834
7.39503
8.27813
9.06105
9.73283
10.2755
10.6636
10.8652
10.8457
10.5729
10.023
9.18668
8.0733
6.71347
5.15844
3.47654
1.74687
0.0511355
-1.53532
-2.95187
-4.15907
-5.14227
-5.91162
-6.49872
-6.95008
-7.31875
-7.65533
-7.99976
-8.37534
-8.78576
-9.21563
-9.63433
-10.0024
-10.2793
-10.4316
-10.4391
-10.3001
-10.0319
-9.66961
-9.26149
-8.86266
-8.52768
-8.30345
-8.22328
-8.3029
-8.53876
-8.9088
-9.37524
-9.88896
-10.3946
-10.836
-11.1605
-11.323
-11.2878
-11.0302
-10.536
-9.80132
-8.83177
-7.64168
-6.25392
-4.69981
-3.01899
-1.25897
0.526261
2.2787
3.9401
5.45678
6.78498
7.89586
8.77944
9.44628
9.92648
10.2656
10.5179
10.7378
10.9704
11.2431
11.5596
11.8968
12.2063
12.4191
12.4545
12.2309
11.6767
10.7407
9.3999
7.66328
5.57189
3.19467
0.620988
-2.04889
-4.71402
-7.28213
-9.67678
-11.8415
-13.7405
-15.3561
-16.6838
-17.7261
-18.4858
-18.96
-19.1356
-18.9863
-18.4714
-17.5361
-16.1146
-14.135
-11.5262
-8.22778
-4.20159
0.556211
6.00308
12.0402
18.5061
25.1761
31.7672
37.951
43.373
47.6781
50.5419
51.7039
51.0034
48.4137
44.0771
38.3358
31.7617
25.1784
19.6727
16.5841
17.4615
23.9748
37.7732
60.2895
92.5051
134.7
186.23
245.373
309.296
374.156
435.364
487.984
527.228
548.989
550.34
529.931
488.223
427.529
351.836
266.441
177.429
91.0615
13.1504
-51.5154
-99.6138
-129.561
-141.578
-137.562
-120.769
-95.3741
-65.9494
-36.9398
-12.1886
5.42913
14.2331
13.8063
4.91124
-10.724
-30.7138
-52.3711
-73.0651
-90.5361
-103.135
-109.961
-110.897
-106.54
-98.0484
-86.9376
-74.8447
-63.304
-53.5563
-46.4142
-42.1956
-40.7288
-41.4201
-43.3723
-45.5313
-46.8427
-46.3942
-43.5285
-37.9147
-29.5707
-18.841
-6.33312
7.17314
20.8316
33.8361
45.5156
55.407
63.3011
69.2577
73.5913
76.8305
79.657
82.8298
87.1045
93.1538
101.497
112.449
126.084
142.231
160.489
180.26
200.808
221.318
240.962
258.96
274.623
287.387
296.822
302.628
304.617
302.695
296.833
287.062
273.465
256.192
235.484
211.701
185.347
157.089
127.752
98.2904
69.7429
43.1564
19.5031
-0.406272
-16.0005
-27.0049
-33.4694
-35.7636
-34.5375
-30.654
-25.0995
-18.8851
-12.9498
-8.07553
-4.82506
-3.50663
-4.16861
-6.62209
-10.4866
-15.252
-20.3475
-25.211
-29.3486
-32.3815
-34.0744
-34.3458
-33.2609
-31.009
-27.8714
-24.183
-20.293
-16.5283
-13.1638
-10.4007
-8.35482
-7.05423
-6.44633
-6.41167
-6.78333
-7.3692
-7.97503
-8.42596
-8.58472
-8.36484
-7.73793
-6.73442
-5.43782
-3.97318
-2.49104
-1.14864
-0.0905282
0.569314
0.761578
0.470374
-0.264527
-1.35226
-2.66164
-4.03678
-5.31541
-6.3476
-7.01229
-7.22976
-6.96837
-6.24528
-5.12122
-3.69047
-2.06782
-0.374405
1.27557
2.7854
4.08281
5.12269
5.88597
6.37574
6.61158
6.62376
6.44825
6.12349
5.68908
5.18644
4.66065
4.16261
3.75061
3.49037
3.45316
3.71172
4.33464
5.37973
6.88733
8.87453
11.3308
14.2156
17.4578
20.9575
24.5892
28.2072
31.652
34.7582
37.364
39.3205
40.5014
40.8121
40.1969
38.6438
36.1871
32.9059
28.9205
24.3855
19.4815
14.4054
9.35956
4.54176
0.135032
-3.70115
-6.83858
-9.18626
-10.6944
-11.3561
-11.2063
-10.3183
-8.7972
-6.77198
-4.38571
-1.786
0.883536
3.48979
5.91417
8.05404
9.82231
11.1459
11.9645
12.2294
11.9053
10.972
9.42809
7.29522
4.62102
1.48093
-2.02259
-5.76363
-9.59921
-13.378
-16.9507
-20.1804
-22.9529
-25.1848
-26.8285
-27.8743
-28.3486
-28.3082
-27.8329
-27.0148
-25.9491
-24.7236
-23.4124
-22.0704
-20.7323
-19.4141
-18.1167
-16.8316
-15.5474
-14.2552
-12.9532
-11.6489
-10.3599
-9.11178
-7.93467
-6.85901
-5.911
-5.10868
-4.45919
-3.95752
-3.58698
-3.32111
-3.12697
-2.969
-2.81325
-2.63121
-2.40286
-2.11857
-1.77959
-1.39725
-0.990811
-0.584501
-0.203891
0.127736
0.39266
0.581206
0.693109
0.737631
0.732412
0.701233
0.671009
0.668393
0.716468
0.831948
1.02326
1.28972
1.6218
2.00239
2.40863
2.81399
3.19027
3.50924
3.74396
3.86984
3.86574
3.71532
3.40874
2.94481
2.33329
1.59699
0.773238
-0.0859356
-0.915163
-1.63903
-2.17716
-2.45082
-2.39014
-1.94138
-1.07286
0.221024
1.91843
3.97151
6.31033
8.84863
11.4903
14.1356
16.6858
19.0462
21.1268
22.8413
24.105
24.8326
24.9368
24.3295
22.9245
20.6445
17.4316
13.2616
8.16224
2.23715
-4.30598
-11.1218
-17.6908
-23.2854
-26.9475
-27.4914
-23.5462
-13.6528
3.57864
29.2563
63.9593
107.492
158.689
215.311
274.087
330.905
381.163
420.233
443.993
449.346
434.661
400.06
347.504
280.661
204.571
125.129
48.4763
-19.6545
-74.5273
-112.875
-133.188
-135.795
-122.733
-97.4217
-64.2098
-27.8345
7.12346
36.7294
58.0724
69.4953
70.6606
62.4572
46.7726
26.1693
3.51183
-18.4046
-37.1812
-51.0619
-59.0758
-61.0703
-57.6392
-49.9665
-39.613
-28.2773
-17.5646
-8.79099
-2.84419
-0.113647
-0.491077
-3.43491
-8.08399
-13.401
-18.3245
-21.9089
-23.4367
-22.4896
-18.9759
-13.1136
-5.37597
3.5892
13.0542
22.3072
30.7372
37.8997
43.5571
47.6928
50.4993
52.3455
53.7274
55.2099
57.3659
60.7192
65.6959
72.5878
81.5307
92.4975
105.305
119.634
135.05
151.043
167.049
182.482
196.754
209.294
219.559
227.045
231.297
231.925
228.629
221.22
209.658
194.086
174.851
152.522
127.886
101.913
75.7106
50.4405
27.234
7.09398
-9.19452
-21.1363
-28.5715
-31.6876
-30.9953
-27.272
-21.4774
-14.6534
-7.81767
-1.86601
2.50838
4.86844
5.05566
3.18054
-0.415872
-5.22278
-10.6342
-16.0278
-20.8376
-24.614
-27.0641
-28.0693
-27.6813
-26.098
-23.6251
-20.6288
-17.487
-14.544
-12.0754
-10.2644
-9.19207
-8.84162
-9.11277
-9.84474
-10.8431
-11.9067
-12.8518
-13.5299
-13.8397
-13.7306
-13.2011
-12.2912
-11.0723
-9.63533
-8.07997
-6.50459
-4.99897
-3.63905
-2.48383
-1.57375
-0.930183
-0.555581
-0.434251
-0.533725
-0.806941
-1.19543
-1.63363
-2.05423
-2.39431
-2.60165
-2.64035
-2.49513
-2.17329
-1.70401
-1.13477
-0.525366
0.0597617
0.559864
0.925632
1.12533
1.14842
1.00627
0.729784
0.364577
-0.0357487
-0.417012
-0.731536
-0.943913
-1.03472
-1.00182
-0.859229
-0.633918
-0.361157
-0.07912
0.176406
0.376531
0.502438
0.54694
0.514396
0.419209
0.28331
0.133131
-0.00349173
-0.100085
-0.133795
-0.0870439
0.0513604
0.285555
0.612291
1.02085
1.49318
2.00431
2.52309
3.01343
3.43607
3.75106
3.9207
3.91299
3.70503
3.28621
2.66066
1.8486
0.886371
-0.175219
-1.27399
-2.34098
-3.30605
-4.10402
-4.68075
-4.99838
-5.03932
-4.80812
-4.33139
-3.65523
-2.84081
-1.95828
-1.07981
-0.272477
0.408208
0.923438
1.25432
1.40287
1.39055
1.25472
1.04319
0.807599
0.596438
0.448622
0.388417
0.422499
0.539567
0.712608
0.903495
1.06927
1.16917
1.17128
1.05785
0.828382
0.499892
0.104497
-0.315466
-0.713875
-1.04775
-1.2835
-1.40156
-1.3986
-1.28717
-1.09301
-0.850418
-0.596806
-0.367083
-0.188905
-0.0793727
-0.0435597
-0.074921
-0.157359
-0.268484
-0.383493
-0.479033
-0.536513
-0.54443
-0.49948
-0.40641
-0.276746
-0.126681
0.0255014
0.162082
0.268262
0.333925
0.354633
0.331784
0.271981
0.185788
0.0860698
-0.0138167
-0.10173
-0.16814
-0.207045
-0.216316
-0.197428
-0.154622
-0.0935846
-0.0198285
0.0629947
0.154534
0.258624
0.383338
0.540087
0.741788
1.00036
1.32399
1.71456
2.1659
2.66302
3.18265
3.69496
4.16626
4.56233
4.85192
5.01013
5.02115
4.88028
4.59496
4.18485
3.68089
3.12368
2.56105
2.0452
1.62947
1.36497
1.29729
1.4635
1.8899
2.5908
3.56877
4.81642
6.31974
8.06242
10.0302
12.2141
14.6112
17.2218
20.0429
23.0585
26.2274
29.4721
32.6697
35.6487
38.1928
40.0537
40.9731
40.7142
39.1023
36.0746
31.738
26.4313
20.7864
15.7762
12.7337
13.3238
19.448
33.0725
55.9805
89.4683
134.024
189.045
252.645
321.617
391.575
457.289
513.18
553.923
575.077
573.654
548.542
500.724
433.247
350.948
259.964
167.094
79.0871
1.94855
-59.6471
-102.777
-126.473
-131.699
-121.109
-98.634
-68.9531
-36.9206
-7.01897
17.099
32.9326
39.2921
36.2905
25.1834
8.09007
-12.36
-33.4043
-52.5019
-67.6228
-77.445
-81.442
-79.8623
-73.6138
-64.0765
-52.8744
-41.6401
-31.801
-24.4142
-20.0654
-18.839
-20.3563
-23.8699
-28.3984
-32.8776
-36.3091
-37.8867
-37.0853
-33.7056
-27.8723
-19.989
-10.662
-0.60306
9.47389
18.9476
27.3662
34.4964
40.3431
45.1378
49.3018
53.3882
58.0129
63.7809
71.2165
80.7043
92.4459
106.436
122.459
140.107
158.817
177.919
196.692
214.428
230.483
244.324
255.552
263.915
269.294
271.678
271.124
267.715
261.527
252.602
240.952
226.572
209.483
189.779
167.683
143.588
118.075
91.9115
66.0111
41.3649
18.9544
-0.346156
-15.8624
-27.1945
-34.2624
-37.3153
-36.9023
-33.8108
-28.9775
-23.386
-17.963
-13.4862
-10.5143
-9.34678
-10.0159
-12.3108
-15.8281
-20.0406
-24.3753
-28.289
-31.3342
-33.2061
-33.767
-33.0481
-31.2282
-28.5964
-25.5038
-22.3111
-19.341
-16.8396
-14.9521
-13.714
-13.0582
-12.835
-12.8409
-12.8522
-12.6577
-12.0863
-11.027
-9.43955
-7.35482
-4.86682
-2.11809
0.719119
3.46307
5.9418
8.0094
9.55787
10.5239
10.8904
10.6836
9.96625
8.8282
7.37612
5.72286
3.97808
2.24062
0.593125
-0.900838
-2.19762
-3.27246
-4.11732
-4.73802
-5.15127
-5.38181
-5.45996
-5.41944
-5.29538
-5.12236
-4.93234
-4.75242
-4.60256
-4.49355
-4.4255
-4.38729
-4.35734
-4.30583
-4.1983
-4.00031
-3.68266
-3.2262
-2.62574
-1.89212
-1.05216
-0.146244
0.776024
1.66176
2.46125
3.13412
3.65422
4.01244
4.21719
4.29236
4.27321
4.20079
4.1159
4.05341
4.03776
4.08032
4.17889
4.3192
4.47817
4.62828
4.74225
4.79731
4.77844
4.68017
4.50671
4.27071
3.99086
3.68875
3.38572
3.09995
2.84418
2.6243
2.43891
2.27949
2.1314
1.97524
1.78847
1.54736
1.2289
0.812938
0.284336
-0.364931
-1.13385
-2.0109
-2.97338
-3.98777
-5.01139
-5.99531
-6.88852
-7.64276
-8.21767
-8.58549
-8.73472
-8.67211
-8.42258
-8.02688
-7.53719
-7.01096
-6.50394
-6.06315
-5.72085
-5.49044
-5.36486
-5.31784
-5.30794
-5.28474
-5.1965
-4.99803
-4.65771
-4.16263
-3.52104
-2.76178
-1.93095
-1.08602
-0.288585
0.403379
0.942697
1.29853
1.45966
1.43511
1.25211
0.951894
0.58396
0.199645
-0.153986
-0.439245
-0.631285
-0.719645
-0.707849
-0.611313
-0.454006
-0.264411
-0.0713985
0.0994726
0.228794
0.305032
0.325038
0.293448
0.22118
0.123407
0.0174061
-0.0792529
-0.149835
-0.178679
-0.15058
-0.049592
0.142253
0.445746
0.884248
1.48201
2.26099
3.23632
4.41118
5.77183
7.28384
8.89054
10.5143
12.0612
13.4282
14.5126
15.2231
15.4895
15.271
14.5614
13.3908
11.8226
9.94693
7.87131
5.70927
3.56921
1.5445
-0.293539
-1.89897
-3.25054
-4.34721
-5.20073
-5.82661
-6.23479
-6.42158
-6.36406
-6.0178
-5.3185
-4.18747
-2.54058
-0.29986
2.59345
6.16599
10.4007
15.2283
20.522
26.0971
31.7144
37.0899
41.9072
45.8367
48.5574
49.7828
49.2881
46.9374
42.7098
36.7222
29.249
20.7394
11.8317
3.36516
-3.6147
-7.86294
-7.96473
-2.39947
10.3496
31.6354
62.4418
103.153
153.33
211.539
275.272
341
404.376
460.591
504.826
532.785
541.203
528.28
493.965
440.047
370.037
288.848
202.308
116.57
37.4915
-29.9464
-82.0997
-116.965
-134.284
-135.453
-123.255
-101.456
-74.3164
-46.0966
-20.591
-0.763131
11.4934
15.4485
11.484
0.918138
-14.2627
-31.7236
-49.1077
-64.3306
-75.8092
-82.603
-84.4612
-81.7769
-75.4656
-66.7891
-57.1535
-47.9087
-40.1749
-34.7163
-31.8721
-31.5504
-33.2779
-36.2959
-39.6837
-42.4938
-43.8782
-43.1909
-40.0566
-34.3978
-26.422
-16.5724
-5.45243
6.26453
17.9279
28.9923
39.0801
48.0179
55.8431
62.7834
69.2132
75.5949
82.4139
90.1153
99.0507
109.44
121.35
134.695
149.248
164.671
180.549
196.431
211.863
226.419
239.72
251.443
261.314
269.104
274.61
277.639
278.003
275.514
269.991
261.277
249.272
233.961
215.455
194.018
170.088
144.279
117.363
90.226
63.8114
39.0436
16.7511
-2.40624
-17.9958
-29.8472
-38.0608
-42.9869
-45.1789
-45.3272
-44.1802
-42.4644
-40.8109
-39.6985
-39.4181
-40.0619
-41.5367
-43.5985
-45.9024
-48.0603
-49.6992
-50.5121
-50.2958
-48.9725
-46.5927
-43.3219
-39.4131
-35.1705
-30.9105
-26.9239
-23.4451
-20.6315
-18.5544
-17.2008
-16.4857
-16.2712
-16.3892
-16.6651
-16.9381
-17.0772
-16.9912
-16.6317
-15.9912
-15.0957
-13.9951
-12.7528
-11.4346
-10.1005
-8.7992
-7.56447
-6.41551
-5.35894
-4.39246
-3.50914
-2.70144
-1.96437
-1.29732
-0.704404
-0.193554
0.225516
0.54379
0.755489
0.860161
0.863955
0.779887
0.627072
0.42904
0.211426
-0.000635217
-0.185036
-0.324807
-0.409547
-0.43602
-0.407893
-0.334689
-0.230138
-0.110176
0.0091434
0.113564
0.192142
0.238226
0.24982
0.229359
0.182987
0.119481
0.048971
-0.0183681
-0.0735461
-0.109771
-0.123153
-0.113008
-0.0816948
-0.0339936
0.023919
0.0857388
0.14635
0.202979
0.255999
0.309284
0.370051
0.448227
0.555429
0.703687
0.904068
1.16538
1.49309
1.88854
2.3485
2.86511
3.42605
4.01507
4.61276
5.19765
5.74751
6.24089
6.65879
6.9862
7.21336
7.33669
7.35898
7.289
7.14047
6.93028
6.67645
6.39579
6.10166
5.80226
5.49946
5.18851
4.85876
4.49503
4.07982
3.59579
3.02832
2.36781
1.61132
0.763412
-0.163976
-1.15261
-2.17971
-3.22016
-4.24867
-5.24168
-6.17854
-7.04197
-7.81779
-8.49409
-9.0601
-9.50521
-9.81831
-9.98776
-10.0021
-9.85144
-9.52931
-9.03486
-8.3748
-7.56487
-6.63043
-5.60595
-4.53333
-3.45913
-2.43107
-1.49404
-0.686316
-0.036208
0.440251
0.740428
0.874863
0.865741
0.744317
0.547607
0.314797
0.0838243
-0.111479
-0.243367
-0.291145
-0.241157
-0.0859537
0.177046
0.547049
1.02117
1.59521
2.26374
3.01959
3.85289
4.74992
5.69236
6.65716
7.61729
8.54343
9.40651
10.1806
10.846
11.3914
11.8151
12.125
12.3369
12.4711
12.5487
12.5871
12.5965
12.5768
12.5167
12.3944
12.1797
11.838
11.3352
10.6421
9.7394
8.62064
7.294
5.78192
4.11893
2.34781
0.514829
-1.3351
-3.16256
-4.93601
-6.63185
-8.23166
-9.71677
-11.0605
-12.2194
-13.1238
-13.6721
-13.7273
-13.1213
-11.6655
-9.1692
-5.46447
-0.434925
5.9552
13.6356
22.4121
31.96
41.8306
51.4716
60.2621
67.558
72.7462
75.3033
74.8536
71.2226
64.4822
54.9857
43.391
30.6694
18.0999
7.24217
-0.116281
-2.04925
3.3762
17.9203
42.9484
79.183
126.46
183.533
247.967
316.176
383.608
445.104
495.383
529.607
543.948
536.087
505.549
453.843
384.367
302.091
213.04
123.675
40.212
-32.0083
-89.0324
-128.631
-150.421
-155.774
-147.523
-129.529
-106.155
-81.7262
-60.0418
-43.9915
-35.3168
-34.5343
-41.0146
-53.1948
-68.8842
-85.6169
-101.004
-113.039
-120.327
-122.207
-118.773
-110.798
-99.5662
-86.6641
-73.7466
-62.3132
-53.5233
-48.0698
-46.1223
-47.342
-50.9597
-55.9032
-60.9533
-64.9069
-66.7255
-65.6523
-61.2847
-53.5982
-42.9212
-29.8694
-15.2502
0.0467356
15.1604
29.3556
42.0967
53.0921
62.3063
69.9422
76.3981
82.2061
87.9622
94.2537
101.594
110.371
120.809
132.956
146.681
161.698
177.597
193.885
210.04
225.55
239.956
252.881
264.045
273.261
280.425
285.483
288.398
289.121
287.553
283.543
276.88
267.326
254.648
238.678
219.367
196.841
171.44
143.729
114.494
84.6929
55.3943
27.6896
2.59887
-19.02
-36.5488
-49.6627
-58.3532
-62.9185
-63.9228
-62.1297
-58.418
-53.6905
-48.787
-44.4091
-41.0678
-39.0541
-38.4381
-39.0911
-40.7272
-42.9588
-45.356
-47.5041
-49.0527
-49.7511
-49.4671
-48.1906
-46.0215
-43.1461
-39.8064
-36.266
-32.7771
-29.5531
-26.7479
-24.4447
-22.654
-21.32
-20.3338
-19.5516
-18.8151
-17.971
-16.8893
-15.477
-13.6868
-11.5198
-9.02348
-6.2832
-3.41119
-0.532118
2.23182
4.77474
7.0179
8.91591
10.4573
11.6595
12.558
13.1933
13.596
13.7741
13.7049
13.3345
12.5836
11.3626
9.59084
7.2185
4.2467
0.74171
-3.15969
-7.25555
-11.2947
-15.0014
-18.1054
-20.3732
-21.6363
-21.8115
-20.9118
-19.0456
-16.4047
-13.2432
-9.84962
-6.51634
-3.50997
-1.04568
0.731311
1.75572
2.04291
1.68083
0.814719
-0.373206
-1.68651
-2.93699
-3.96433
-4.651
-4.93114
-4.79283
-4.27418
-3.45404
-2.43906
-1.34866
-0.300108
0.604848
1.2902
1.7119
1.85981
1.75539
1.44598
0.996596
0.480478
-0.0303754
-0.473514
-0.802343
-0.989858
-1.02963
-0.934217
-0.731421
-0.459132
-0.159461
0.127025
0.366295
0.534532
0.620161
0.624113
0.558396
0.443311
0.303764
0.16526
0.0502041
-0.0249804
-0.0515051
-0.0284661
0.0382693
0.138268
0.259384
0.390688
0.524915
0.659912
0.798817
0.948896
1.11926
1.31796
1.54903
1.81015
2.09153
2.37629
2.64235
2.8657
3.02429
3.10199
3.09179
2.99748
2.83352
2.62293
2.39339
2.17228
1.98133
1.83209
1.72276
1.63738
1.54752
1.41636
1.20461
0.877403
0.411035
-0.201609
-0.947796
-1.79453
-2.6911
-3.57436
-4.37585
-5.02991
-5.48149
-5.69264
-5.64673
-5.34997
-4.82994
-4.13143
-3.31021
-2.42556
-1.53259
-0.67564
0.116566
0.833078
1.48015
2.07799
2.65552
3.24398
3.87042
4.55205
5.29242
6.07977
6.88792
7.67935
8.40997
9.03473
9.51313
9.81385
9.91771
9.81878
9.52359
9.04875
8.41762
7.65651
6.79121
5.84428
4.8335
3.77151
2.66658
1.52416
0.348771
-0.854072
-2.07626
-3.30581
-4.52587
-5.71387
-6.84071
-7.86994
-8.75697
-9.44861
-9.88316
-9.99143
-9.69891
-8.92945
-7.61033
-5.67854
-3.08802
0.182743
4.12328
8.68445
13.7732
19.2495
24.9258
30.5712
35.9186
40.678
44.5536
47.2651
48.5722
48.2995
46.3634
42.7979
37.7814
31.6657
25.005
18.5835
13.4345
10.8405
12.2994
19.4435
33.9005
57.0967
90.0138
132.928
185.173
244.972
309.394
374.455
435.398
487.112
524.668
543.89
541.896
517.519
471.538
406.693
327.462
239.623
149.66
64.0873
-11.2279
-71.6525
-114.219
-137.854
-143.377
-133.293
-111.399
-82.2778
-50.7273
-21.22
2.5642
18.0727
24.0551
20.5707
8.84206
-9.01504
-30.3407
-52.311
-72.2987
-88.1747
-98.5165
-102.71
-100.938
-94.0793
-83.5177
-70.9204
-57.9957
-46.2717
-36.9198
-30.6407
-27.6221
-27.565
-29.77
-33.2662
-36.9625
-39.7996
-40.8838
-39.5866
-35.6016
-28.9554
-19.9746
-9.2189
2.6102
14.7693
26.57
37.4597
47.079
55.2897
62.1732
68.0038
73.2002
78.2661
83.7264
90.0664
97.6816
106.84
117.662
130.114
144.016
159.064
174.858
190.935
206.802
221.969
235.976
248.408
258.907
267.175
272.968
276.085
276.357
273.64
267.809
258.769
246.468
230.926
212.266
190.751
166.806
141.03
114.188
87.178
60.9731
36.5485
14.7979
-3.54956
-17.9993
-28.3394
-34.6588
-37.3347
-36.9873
-34.4106
-30.486
-26.0898
-22.0069
-18.859
-17.0557
-16.7727
-17.9582
-20.3639
-23.595
-27.1725
-30.5975
-33.4121
-35.2482
-35.8608
-35.1441
-33.1307
-29.977
-25.9365
-21.3278
-16.4997
-11.7975
-7.53362
-3.96459
-1.27531
0.429093
1.12419
0.860974
-0.24437
-2.02431
-4.27592
-6.77772
-9.30617
-11.6511
-13.6289
-15.0933
-15.9434
-16.1272
-15.6431
-14.5363
-12.8933
-10.8322
-8.49242
-6.02299
-3.57094
-1.27114
0.761899
2.43973
3.70285
4.52101
4.89139
4.8352
4.3936
3.62364
2.59453
1.38475
0.079653
-1.23074
-2.45418
-3.49948
-4.28079
-4.72297
-4.76768
-4.37938
-3.55052
-2.30481
-0.697818
1.18551
3.23661
5.33175
7.34246
9.14667
10.6393
11.7409
12.4037
12.6141
12.3915
11.7842
10.8625
9.71023
8.41649
7.06729
5.73924
4.49509
3.38159
2.42955
1.65542
1.0641
0.652068
0.410209
0.326002
0.384676
0.569411
0.8608
1.23599
1.66793
2.12528
2.57307
2.97452
3.29357
3.49803
3.56266
3.47164
3.21983
2.81255
2.26359
1.59186
0.817193
-0.043955
-0.981947
-1.99582
-3.09301
-4.28689
-5.59245
-7.02093
-8.57448
-10.2418
-11.996
-13.7942
-15.5799
-17.2872
-18.8447
-20.1808
-21.228
-21.9256
-22.2229
-22.0813
-21.4762
-20.4
-18.8645
-16.9039
-14.5772
-11.9694
-9.19013
-6.37066
-3.65709
-1.20159
0.848904
2.36505
3.24749
3.43783
2.92688
1.75897
0.0314113
-2.11107
-4.48688
-6.89228
-9.11896
-10.9728
-12.2919
-12.9613
-12.9242
-12.1855
-10.8104
-8.91594
-6.65675
-4.20817
-1.74723
0.565287
2.59969
4.26754
5.52612
6.37695
6.85906
7.03831
6.99439
6.80771
6.5477
6.26439
5.98391
5.70851
5.42066
5.09028
4.68375
4.17322
3.54443
2.80193
1.97084
1.09485
0.231011
-0.557665
-1.21064
-1.67764
-1.92463
-1.93701
-1.71959
-1.29364
-0.691656
0.0489405
0.891948
1.80706
2.7722
3.77299
4.79964
5.84178
6.88242
7.89245
8.82669
9.62284
10.2035
10.4815
10.3677
9.78069
8.65621
6.95656
4.6776
1.85379
-1.43956
-5.08653
-8.93336
-12.7937
-16.4562
-19.6949
-22.2815
-24.0009
-24.6672
-24.1414
-22.3473
-19.2837
-15.0329
-9.76043
-3.7081
2.82128
9.48562
15.9295
21.8113
26.8287
30.7391
33.3733
34.6423
34.5363
33.12
30.5252
26.9468
22.6461
17.9654
13.3557
9.41604
6.93639
6.93068
10.6411
19.4938
34.9901
58.5265
91.1554
133.312
184.557
243.382
307.132
372.092
433.732
487.109
527.382
550.367
553.056
534.03
493.7
434.345
359.926
275.705
187.722
102.179
24.8165
-39.6364
-87.8932
-118.359
-131.188
-128.141
-112.288
-87.5773
-58.3504
-28.8494
-2.78052
17.0237
28.8099
31.9682
26.9592
15.1278
-1.56444
-20.8465
-40.4448
-58.353
-73.0366
-83.5539
-89.5905
-91.4103
-89.7409
-85.6129
-80.1806
-74.5468
-69.6145
-65.9822
-63.8897
-63.2182
-63.5384
-64.1955
-64.417
-63.4282
-60.559
-55.3297
-47.5074
-37.1278
-24.4831
-10.0799
5.42548
21.304
36.8347
51.3782
64.4376
75.6993
85.0539
92.5948
98.5983
103.488
107.786
112.061
116.872
122.715
129.978
138.906
149.578
161.901
175.615
190.317
205.489
220.542
234.855
247.822
258.892
267.596
273.567
276.552
276.404
273.069
266.575
257.002
244.479
229.167
211.267
191.028
168.763
144.863
119.81
94.1698
68.5832
43.7345
20.3106
-1.04733
-19.7954
-35.5318
-48.031
-57.2608
-63.3807
-66.7205
-67.7424
-66.9911
-65.038
-62.4266
-59.6253
-56.992
-54.7559
-53.0145
-51.7475
-50.8425
-50.129
-49.4147
-48.5205
-47.3074
-45.6953
-43.6698
-41.2786
-38.6195
-35.8219
-33.0258
-30.3617
-27.9337
-25.8086
-24.0108
-22.5249
-21.302
-20.2711
-19.3514
-18.4648
-17.5456
-16.5476
-15.447
-14.2414
-12.946
-11.5883
-10.201
-8.81654
-7.46251
-6.15922
-4.91941
-3.74972
-2.6534
-1.63336
-0.694874
0.152712
0.895721
1.51727
1.99963
2.32727
2.49009
2.486
2.32261
2.01744
1.59687
1.09386
0.544919
-0.0131048
-0.546026
-1.0247
-1.42656
-1.73634
-1.94598
-2.0541
-2.06502
-1.9877
-1.83472
-1.62124
-1.36407
-1.08087
-0.789221
-0.505824
-0.245579
-0.0206666
0.160362
0.293414
0.379483
0.42492
0.441183
0.44391
0.451279
0.481714
0.551212
0.67063
0.843438
1.06437
1.31937
1.58699
1.84126
2.05565
2.20772
2.2836
2.28176
2.21517
2.11148
2.01088
1.96184
2.01514
2.217
2.60225
3.18854
3.97247
4.92832
6.00973
7.15402
8.28896
9.34091
10.2434
10.9448
11.4145
11.6458
11.6565
11.4852
11.1865
10.8225
10.455
10.1374
9.90803
9.78634
9.77135
9.8433
9.96761
10.1006
10.1958
10.2101
10.1085
9.86692
9.47298
8.92439
8.22587
7.38499
6.40803
5.29658
4.04575
2.64426
1.07662
-0.673103
-2.61637
-4.75529
-7.07844
-9.5585
-12.1521
-14.8021
-17.4424
-20.0039
-22.4217
-24.6408
-26.6211
-28.3393
-29.788
-30.9722
-31.9035
-32.593
-33.0451
-33.2523
-33.1926
-32.8313
-32.1246
-31.0277
-29.5033
-27.5312
-25.1162
-22.2925
-19.1251
-15.7062
-12.1485
-8.5746
-5.10665
-1.85501
1.09049
3.66644
5.83799
7.59728
8.95866
9.95169
10.6132
10.9796
11.0813
10.9392
10.5641
9.9596
9.12646
8.06927
6.80281
5.35766
3.78368
2.15048
0.544588
-0.936799
-2.19472
-3.13907
-3.69941
-3.83463
-3.53976
-2.84895
-1.83393
-0.597778
0.735164
2.03223
3.16638
4.02952
4.54329
4.66613
4.39566
3.76624
2.84212
1.70721
0.452912
-0.834358
-2.08419
-3.25039
-4.31512
-5.2884
-6.20256
-7.10202
-8.02936
-9.00921
-10.0323
-11.0424
-11.9296
-12.5311
-12.6422
-12.0365
-10.4936
-7.83169
-3.9399
1.19299
7.45838
14.6193
22.3159
30.0849
37.3929
43.6803
48.412
51.1308
51.509
49.395
44.8536
38.1991
30.0217
21.2059
12.9371
6.68964
4.18286
7.29439
17.9176
37.7608
68.0979
109.495
161.554
222.722
290.221
360.123
427.607
487.363
534.129
563.264
571.313
556.46
518.815
460.481
385.398
298.963
207.492
117.569
35.3864
-33.8701
-86.4939
-120.555
-135.987
-134.46
-119.079
-93.9334
-63.5826
-32.5206
-4.69947
16.846
30.2335
34.8134
31.0992
20.569
5.37344
-12.004
-29.0917
-43.7355
-54.3333
-59.9761
-60.4882
-56.3715
-48.6702
-38.78
-28.2324
-18.4819
-10.7245
-5.765
-3.94798
-5.15329
-8.85156
-14.207
-20.2099
-25.8195
-30.0981
-32.3199
-32.0431
-29.1399
-23.7829
-16.3953
-7.5729
2.00938
11.692
20.9157
29.2855
36.6093
42.9067
48.3923
53.4347
58.5008
64.0916
70.6777
78.6419
88.2357
99.5523
112.518
126.904
142.349
158.398
174.543
190.266
205.081
218.556
230.338
240.155
247.807
253.149
256.071
256.47
254.232
249.229
241.325
230.397
216.376
199.288
179.299
156.746
132.16
106.249
79.8713
53.9768
29.53
7.428
-11.582
-26.9716
-38.4793
-46.13
-50.2248
-51.3014
-50.0706
-47.3377
-43.9171
-40.5513
-37.8427
-36.2065
-35.8466
-36.7588
-38.7564
-41.5144
-44.6263
-47.664
-50.2354
-52.0306
-52.8544
-52.6403
-51.4477
-49.4425
-46.8672
-44.0027
-41.1296
-38.4926
-36.2729
-34.5711
-33.4013
-32.6975
-32.329
-32.1228
-31.8895
-31.4496
-30.6561
-29.4112
-27.6764
-25.4738
-22.8798
-20.0133
-17.0183
-14.0464
-11.2389
-8.71199
-6.54708
-4.78543
-3.42893
-2.44514
-1.77599
-1.34824
-1.08447
-0.912842
-0.774669
-0.629124
-0.454809
-0.248467
-0.0214027
0.205569
0.407751
0.561902
0.650579
0.665006
0.606247
0.484739
0.318447
0.130095
-0.055994
-0.216915
-0.333597
-0.392302
-0.385127
-0.309578
-0.16752
0.0361206
0.294479
0.599375
0.941248
1.30847
1.68628
2.0557
2.39303
2.67013
2.85593
2.91913
2.83187
2.57395
2.13698
1.52784
0.770556
-0.0936818
-1.00887
-1.90867
-2.72269
-3.38374
-3.83519
-4.03726
-3.97146
-3.64233
-3.07619
-2.31713
-1.4206
-0.44581
0.552062
1.52838
2.45338
3.31356
4.10987
4.85319
5.55789
6.23469
6.88417
7.49232
8.02899
8.44969
8.70063
8.72629
8.47808
7.92298
7.05029
5.87565
4.44134
2.81287
1.07224
-0.691042
-2.38982
-3.94837
-5.3093
-6.43718
-7.31852
-7.95841
-8.37466
-8.59105
-8.63093
-8.51257
-8.24704
-7.83878
-7.2886
-6.59807
-5.77437
-4.83439
-3.80709
-2.73357
-1.66482
-0.65722
0.233266
0.957451
1.47878
1.7778
1.85457
1.72872
1.43705
1.02918
0.561806
0.0922452
-0.327685
-0.656883
-0.868595
-0.952128
-0.91258
-0.768737
-0.54955
-0.289729
-0.0250509
0.212009
0.395846
0.510133
0.548891
0.516234
0.424935
0.29412
0.146484
0.00545137
-0.107264
-0.173385
-0.178883
-0.113882
0.028143
0.251547
0.559626
0.955271
1.44084
2.0171
2.68144
3.42546
4.23273
5.07709
5.92213
6.72229
7.42561
7.97811
8.32912
8.43703
8.27456
7.83273
7.12287
6.17632
5.04181
3.78075
2.46121
1.15144
-0.0861063
-1.19938
-2.14928
-2.90995
-3.4669
-3.81355
-3.94692
-3.8634
-3.55543
-3.00958
-2.20632
-1.12129
0.272378
2.00107
4.08746
6.5471
9.38463
12.5896
16.1312
19.953
23.9672
28.0497
32.0374
35.7292
38.892
41.272
42.6128
42.68
41.2905
38.3477
33.8805
28.0854
21.37
14.3924
8.09012
3.68724
2.66606
6.68963
17.465
36.5453
65.0828
103.558
151.53
207.451
268.599
331.17
390.533
441.645
479.58
500.101
500.203
478.539
435.668
374.076
297.971
212.867
125.017
40.7594
-34.13
-95.0093
-138.791
-164.175
-171.666
-163.394
-142.765
-113.995
-81.589
-49.8344
-22.3599
-1.81185
10.3274
13.769
9.30652
-1.40945
-16.1728
-32.5564
-48.2353
-61.2618
-70.263
-74.546
-74.1063
-69.5489
-61.9418
-52.6252
-43.0071
-34.3703
-27.7152
-23.6536
-22.3628
-23.5992
-26.7636
-31.0058
-35.3508
-38.8292
-40.5953
-40.0193
-36.7453
-30.7115
-22.1336
-11.458
0.70774
13.6757
26.7595
39.3472
50.9588
61.2821
70.1868
77.7166
84.0642
89.5337
94.4967
99.3486
104.469
110.192
116.783
124.428
133.23
143.206
154.294
166.353
179.167
192.447
205.835
218.904
231.167
242.093
251.117
257.672
261.218
261.276
257.469
249.557
237.472
221.344
201.515
178.54
153.173
126.326
99.0228
72.3258
47.2589
24.728
5.44683
-10.1196
-21.7898
-29.6714
-34.1386
-35.7824
-35.3406
-33.6157
-31.3907
-29.353
-28.0337
-27.7696
-28.6905
-30.7299
-33.6588
-37.1331
-40.7505
-44.1071
-46.8484
-48.7079
-49.5311
-49.2827
-48.0386
-45.9659
-43.2938
-40.281
-37.1838
-34.2287
-31.5919
-29.3881
-27.6674
-26.4203
-25.5884
-25.0788
-24.7794
-24.5735
-24.3521
-24.0226
-23.5141
-22.7794
-21.7944
-20.5557
-19.0766
-17.3837
-15.5131
-13.5071
-11.4117
-9.27398
-7.14069
-5.05602
-3.06019
-1.18794
0.532451
2.07973
3.43948
4.60325
5.56709
6.32974
6.8908
7.24948
7.404
7.35213
7.09263
6.62754
5.9648
5.12078
4.12224
3.00724
1.82476
0.633026
-0.503502
-1.51803
-2.34595
-2.92945
-3.22186
-3.1913
-2.82329
-2.12222
-1.11146
0.167754
1.65867
3.29232
4.99152
6.67518
8.26275
9.67843
10.8551
11.7376
12.2858
12.4767
12.3059
11.7885
10.9582
9.86591
8.57654
7.16458
5.70888
4.28675
2.96822
1.81097
0.856498
0.127997
-0.369914
-0.649722
-0.738075
-0.671869
-0.493928
-0.248885
0.0202743
0.274657
0.480776
0.610814
0.642126
0.556365
0.338652
-0.0228346
-0.536663
-1.2073
-2.03379
-3.00827
-4.11469
-5.32814
-6.61502
-7.93425
-9.23942
-10.4818
-11.6136
-12.5918
-13.381
-13.9561
-14.304
-14.4233
-14.3241
-14.0258
-13.5547
-12.9408
-12.2154
-11.4087
-10.5478
-9.6562
-8.75297
-7.85346
-6.96969
-6.11114
-5.28554
-4.49945
-3.75881
-3.06914
-2.43563
-1.86308
-1.35561
-0.916438
-0.547507
-0.249174
-0.0199651
0.14357
0.246866
0.297197
0.303385
0.275397
0.223892
0.159771
0.0938071
0.0363679
-0.00276515
-0.0145365
0.00921538
0.0754828
0.18965
0.35488
0.57139
0.835717
1.14014
1.47239
1.81581
2.14992
2.4516
2.69659
2.86151
2.92612
2.87579
2.70395
2.41415
2.02159
1.55362
1.04907
0.556232
0.129646
-0.173953
-0.300083
-0.200611
0.163206
0.819401
1.78609
3.07433
4.69243
6.6508
8.96578
11.6615
14.7684
18.3186
22.3375
26.8334
31.7857
37.1341
42.7693
48.5281
54.193
59.4972
64.1358
67.7838
70.1189
70.8509
69.7557
66.7124
61.7449
55.0635
47.1062
38.5741
30.4546
24.0205
20.7948
22.4668
30.752
47.1957
72.9335
108.434
153.264
205.92
263.778
323.179
379.678
428.44
464.728
484.454
484.679
464.033
422.951
363.717
290.286
207.902
122.569
40.4257
-32.8838
-92.7758
-136.158
-161.677
-169.761
-162.458
-143.105
-115.867
-85.2193
-55.4293
-30.1053
-11.858
-2.10819
-1.05051
-7.76528
-20.4519
-36.7446
-54.0655
-69.9677
-82.4281
-90.0589
-92.2188
-89.0204
-81.2421
-70.1648
-57.3598
-44.4599
-32.9434
-23.957
-18.1966
-15.856
-16.6438
-19.8605
-24.5202
-29.498
-33.681
-36.1046
-36.0558
-33.1361
-27.2781
-18.719
-7.93922
4.42118
17.6569
31.0876
44.1335
56.3696
67.5545
77.6334
86.7199
95.0612
102.993
110.888
119.113
127.982
137.727
148.474
160.237
172.916
186.305
200.116
213.999
227.567
240.423
252.185
262.5
271.055
277.583
281.857
283.685
282.895
279.336
272.874
263.4
250.852
235.238
216.666
195.378
171.77
146.404
119.999
93.4021
67.5388
43.3442
21.6873
3.29291
-11.3265
-21.9208
-28.5261
-31.4596
-31.2848
-28.7514
-24.7176
-20.0627
-15.6022
-12.0133
-9.77959
-9.16092
-10.1887
-12.6866
-16.312
-20.612
-25.0858
-29.2468
-32.6764
-35.0653
-36.2375
-36.158
-34.9227
-32.7351
-29.8733
-26.6517
-23.3822
-20.3395
-17.7341
-15.6957
-14.2668
-13.4088
-13.0171
-12.9433
-13.022
-13.0975
-13.0475
-12.7995
-12.3383
-11.7037
-10.9788
-10.2709
-9.6888
-9.32088
-9.21626
-9.37373
-9.73941
-10.2135
-10.6647
-10.9508
-10.9399
-10.5316
-9.67326
-8.36874
-6.68016
-4.72075
-2.64107
-0.610196
1.20523
2.6613
3.65379
4.12961
4.09146
3.59541
2.74198
1.66219
0.500766
-0.601386
-1.52297
-2.17454
-2.50581
-2.50753
-2.20802
-1.66524
-0.95581
-0.162608
0.637351
1.38322
2.03767
2.59062
3.05913
3.48372
3.9215
4.4371
5.09209
5.93443
6.98881
8.24938
9.67594
11.1942
12.7005
14.0707
15.1725
15.8793
16.085
15.7168
14.7457
13.1922
11.1269
8.66575
5.96044
3.18487
0.519169
-1.86689
-3.82917
-5.2616
-6.10441
-6.3473
-6.02747
-5.22283
-4.04138
-2.60825
-1.05201
0.508084
1.97233
3.26721
4.34793
5.19677
5.81799
6.23041
6.45897
6.52692
6.44968
6.23145
5.86456
5.33159
4.60949
3.67506
2.51093
1.11142
-0.512373
-2.32891
-4.28447
-6.30384
-8.29378
-10.149
-11.7605
-13.0255
-13.857
-14.1939
-14.0078
-13.3073
-12.1394
-10.5864
-8.75936
-6.78973
-4.81779
-2.98108
-1.40286
-0.181804
0.615878
0.961475
0.865312
0.374764
-0.431083
-1.44962
-2.56499
-3.6594
-4.62444
-5.37106
-5.83736
-5.99309
-5.84067
-5.41253
-4.76536
-3.97204
-3.11238
-2.26386
-1.49348
-0.851648
-0.36857
-0.0534064
0.104003
0.129335
0.0586054
-0.0676142
-0.209776
-0.334084
-0.415871
-0.441371
-0.407834
-0.322174
-0.198481
-0.0548424
0.0900246
0.219873
0.323365
0.395602
0.438616
0.46087
0.475874
0.500157
0.550819
0.642956
0.78722
0.987797
1.24105
1.53508
1.85028
2.16108
2.43854
2.65378
2.78157
2.80382
2.71222
2.50983
2.21104
1.8402
1.4288
1.01172
0.623218
0.29302
0.0434479
-0.112134
-0.169123
-0.129742
0.000388573
0.216658
0.520157
0.921975
1.44648
2.13308
3.03626
4.22353
5.77139
7.75884
10.2586
13.3258
16.9837
21.209
25.9159
30.9432
36.0468
40.9004
45.1083
48.2309
49.8257
49.5004
46.9789
42.1724
35.2534
26.7212
17.4509
8.71246
2.14633
-0.316909
3.39724
15.2953
37.0497
69.7058
113.401
167.145
228.714
294.683
360.641
421.547
472.225
507.925
524.871
520.738
494.979
448.949
385.815
310.248
227.949
145.049
67.4759
0.356652
-52.4736
-88.7947
-108.131
-111.68
-102.052
-82.8786
-58.328
-32.598
-9.44968
8.1692
18.3742
20.4463
14.7887
2.75436
-13.6218
-31.9464
-49.8018
-65.0499
-76.0707
-81.9129
-82.3472
-77.8226
-69.3439
-58.2895
-46.2014
-34.5741
-24.6705
-17.3845
-13.165
-12.0023
-13.476
-16.8497
-21.1968
-25.5394
-28.9785
-30.8027
-30.5606
-28.093
-23.5238
-17.2145
-9.69302
-1.56719
6.56415
14.1905
20.9509
26.6716
31.3772
35.2767
38.7294
42.194
46.1709
51.1421
57.5162
65.5847
75.4922
87.2232
100.605
115.328
130.973
147.05
163.038
178.423
192.728
205.534
216.492
225.319
231.793
235.729
236.969
235.368
230.789
223.118
212.285
198.295
181.271
161.489
139.401
115.642
91.0114
66.4289
42.8683
21.2779
2.4939
-12.8381
-24.325
-31.8627
-35.6408
-36.1171
-33.9631
-29.9887
-25.0554
-19.9885
-15.4985
-12.1204
-10.1768
-9.76701
-10.7822
-12.9421
-15.8471
-19.0393
-22.0632
-24.5202
-26.1099
-26.656
-26.1142
-24.5639
-22.1858
-19.2301
-15.9803
-12.7166
-9.68435
-7.07025
-4.98847
-3.47713
-2.50452
-1.98299
-1.78796
-1.77897
-1.81976
-1.7951
-1.62246
-1.25769
-0.694831
0.0392244
0.893698
1.80482
2.70682
3.54145
4.26487
4.85114
5.29258
5.59712
5.7839
5.87807
5.90577
5.8904
5.85046
5.79915
5.74546
5.69611
5.65772
5.63827
5.64745
5.6954
5.79004
5.93329
6.11706
6.31994
6.50541
6.62246
6.6088
6.39648
5.91939
5.12135
3.96377
2.43146
0.535668
-1.68624
-4.17422
-6.85157
-9.6323
-12.4284
-15.1559
-17.7385
-20.109
-22.2085
-23.9839
-25.3856
-26.366
-26.8802
-26.8887
-26.3626
-25.2902
-23.684
-21.5864
-19.0731
-16.2524
-13.2608
-10.2539
-7.39422
-4.83689
-2.71447
-1.12365
-0.115041
0.312387
0.211184
-0.320423
-1.14957
-2.12368
-3.08739
-3.8995
-4.4477
-4.65948
-4.50786
-4.01159
-3.22985
-2.25255
-1.18758
-0.14673
0.767871
1.47514
1.9231
2.09283
1.99809
1.68121
1.20572
0.647183
0.0832356
-0.415858
-0.794994
-1.01959
-1.07798
-0.980836
-0.757724
-0.451668
-0.112388
0.210738
0.475053
0.64958
0.718022
0.679588
0.547711
0.347032
0.109181
-0.131966
-0.344898
-0.504354
-0.594043
-0.607951
-0.550202
-0.433631
-0.277361
-0.103808
0.0644589
0.207576
0.310634
0.365082
0.369188
0.327601
0.25015
0.150103
0.0421734
-0.0594555
-0.142848
-0.199573
-0.225395
-0.22037
-0.188392
-0.13631
-0.0727591
-0.00688703
0.052877
0.0998856
0.130108
0.142716
0.140412
0.129507
0.119695
0.123461
0.155067
0.229119
0.358785
0.553902
0.819274
1.1535
1.54867
1.9911
2.46312
2.94574
3.42182
3.87923
4.31338
4.72877
5.13898
5.56507
6.03249
6.56683
7.18899
7.91059
8.7303
9.63172
10.5832
11.54
12.4477
13.2475
13.8821
14.3009
14.4648
14.3492
13.9447
13.2573
12.3052
11.1156
9.72072
8.15345
6.44416
4.61826
2.69545
0.690635
-1.38354
-3.51259
-5.67508
-7.83704
-9.94678
-11.931
-13.6933
-15.1155
-16.0626
-16.3918
-15.964
-14.6585
-12.3882
-9.11419
-4.85685
0.296727
6.19169
12.61
19.2806
25.8932
32.1152
37.6094
42.0517
45.1483
46.6526
46.3816
44.2338
40.2099
34.437
27.1991
18.9713
10.4576
2.62199
-3.29442
-5.78889
-3.15876
6.37625
24.4869
52.4912
91.0808
140.057
198.128
262.816
330.514
396.706
456.353
504.382
536.244
548.449
539.01
507.733
456.3
388.152
308.153
222.104
136.151
56.1669
-12.8213
-67.0949
-104.54
-124.759
-128.981
-119.811
-100.84
-76.1752
-49.9558
-25.9056
-6.97126
4.91631
8.94247
5.37103
-4.61451
-19.1607
-36.0467
-52.9982
-67.9748
-79.3979
-86.2976
-88.3685
-85.9365
-79.8493
-71.3108
-61.6873
-52.3103
-44.3032
-38.4504
-35.1234
-34.266
-35.4381
-37.9048
-40.7576
-43.0469
-43.9096
-42.6749
-38.937
-32.5882
-23.812
-13.0413
-0.889328
11.935
24.7156
36.81
47.7144
57.1072
64.8669
71.0676
75.954
79.901
83.366
86.8371
90.7862
95.6281
101.69
109.192
118.235
128.803
140.767
153.897
167.876
182.322
196.801
210.846
223.974
235.695
245.527
253
257.668
259.119
256.994
251.013
241.001
226.928
208.944
187.407
162.898
136.216
108.352
80.4266
53.6187
29.0695
7.78422
-9.45903
-22.1831
-30.2563
-33.9024
-33.6737
-30.389
-25.0461
-18.7158
-12.4338
-7.10008
-3.39839
-1.74406
-2.2646
-4.81333
-9.01263
-14.3197
-20.1056
-25.7374
-30.6534
-34.4237
-36.7889
-37.6756
-37.1879
-35.5784
-33.2034
-30.4704
-27.7836
-25.4952
-23.8667
-23.046
-23.0591
-23.8178
-25.1409
-26.7841
-28.4746
-29.9464
-30.9707
-31.3797
-31.0798
-30.0553
-28.3626
-26.1161
-23.4692
-20.5934
-17.6575
-14.8099
-12.1654
-9.79875
-7.74247
-5.99152
-4.51142
-3.24938
-2.1465
-1.14927
-0.219054
0.661689
1.48709
2.22956
2.84509
3.28144
3.4879
3.42527
3.07465
2.44361
1.56889
0.514966
-0.631344
-1.76965
-2.79696
-3.61943
-4.16317
-4.3828
-4.26652
-3.837
-3.14825
-2.2786
-1.32123
-0.373086
0.47601
1.15298
1.60856
1.82119
1.79741
1.569
1.18726
0.71554
0.220798
-0.234584
-0.599783
-0.840529
-0.941652
-0.907033
-0.757184
-0.524976
-0.250202
0.0262117
0.267592
0.445846
0.544285
0.558691
0.496645
0.375331
0.218229
0.051237
-0.101189
-0.219326
-0.290495
-0.310133
-0.281587
-0.214759
-0.1239
-0.0249166
0.0673784
0.141669
0.191842
0.217733
0.224805
0.22276
0.223318
0.237497
0.272907
0.331599
0.408951
0.493946
0.570906
0.622485
0.633423
0.594426
0.50543
0.377601
0.233574
0.105704
0.0323673
0.052701
0.200439
0.497745
0.950056
1.54291
2.24148
2.9933
3.73386
4.3948
4.91331
5.24173
5.35561
5.25906
4.98641
4.59948
4.18084
3.82372
3.61988
3.6472
3.95876
4.5751
5.48073
6.62554
7.93085
9.29928
10.6268
11.8156
12.7853
13.4819
13.8824
13.9954
13.8574
13.5259
13.0701
12.5605
12.059
11.61
11.2342
10.9248
10.647
10.34
9.92312
9.30327
8.38497
7.08104
5.32351
3.07348
0.329216
-2.86851
-6.43449
-10.2409
-14.1232
-17.8895
-21.3335
-24.2495
-26.4477
-27.7703
-28.1047
-27.3938
-25.6423
-22.918
-19.3481
-15.1108
-10.4229
-5.52361
-0.657531
3.94395
8.07934
11.5911
14.3753
16.3855
17.6307
18.168
18.0901
17.5101
16.5459
15.3055
13.8765
12.3191
10.6656
8.92412
7.08719
5.14247
3.08474
0.926478
-1.29427
-3.51033
-5.6266
-7.52634
-9.08149
-10.1661
-10.6707
-10.5165
-9.66642
-8.1331
-5.98201
-3.33032
-0.341629
2.78261
5.81398
8.50973
10.6265
11.9351
12.2367
11.3803
9.28302
5.95408
1.52273
-3.72831
-9.32571
-14.5684
-18.4986
-19.8936
-17.2945
-9.08681
6.35385
30.4531
64.1787
107.765
160.464
220.383
284.447
348.536
407.784
457.041
491.433
506.942
500.945
472.609
423.09
355.499
274.637
186.512
97.7246
14.772
-56.6199
-112.066
-148.922
-166.474
-165.898
-150.012
-122.858
-89.1677
-53.793
-21.1641
5.16051
22.8051
30.7229
29.1736
19.5498
4.08485
-14.5097
-33.4284
-50.1283
-62.6161
-69.6389
-70.7624
-66.34
-57.3864
-45.3809
-32.0329
-19.0419
-7.88356
0.355562
5.07687
6.19819
4.11437
-0.397854
-6.31343
-12.5105
-17.919
-21.6486
-23.0817
-21.9228
-18.2036
-12.2456
-4.59011
4.09386
13.1101
21.8306
29.7744
36.6615
42.4366
47.2609
51.4776
55.5541
60.0131
65.3589
72.0105
80.2481
90.1792
101.726
114.635
128.506
142.835
157.062
170.628
183.017
193.794
202.63
209.308
213.713
215.816
215.64
213.238
208.657
201.929
193.066
182.069
168.959
153.808
136.776
118.139
98.3086
77.8248
57.3326
37.5363
19.1399
2.78053
-11.0351
-21.983
-29.9542
-35.0634
-37.6327
-38.1521
-37.2221
-35.4878
-33.5701
-32.0043
-31.1928
-31.3759
-32.6229
-34.8435
-37.8154
-41.2239
-44.7081
-47.906
-50.4958
-52.2269
-52.9404
-52.5766
-51.1713
-48.8432
-45.7736
-42.1834
-38.3088
-34.3791
-30.598
-27.1299
-24.0917
-21.5494
-19.5202
-17.9775
-16.8601
-16.0818
-15.5426
-15.1393
-14.7745
-14.3647
-13.8455
-13.1742
-12.3312
-11.3182
-10.1555
-8.87757
-7.5283
-6.15571
-4.80685
-3.52325
-2.33721
-1.26931
-0.327316
0.493328
1.20749
1.83701
2.40644
2.93841
3.44934
3.94596
4.42346
4.86525
5.24477
5.52874
5.68169
5.671
5.47156
5.06972
4.46574
3.67451
2.72472
1.65647
0.517744
-0.639652
-1.76432
-2.80912
-3.73426
-4.50933
-5.11419
-5.53878
-5.78201
-5.8502
-5.75528
-5.51321
-5.14278
-4.66482
-4.10189
-3.47808
-2.81891
-2.15096
-1.50117
-0.895682
-0.358406
0.090644
0.43695
0.672791
0.79803
0.820219
0.753973
0.619624
0.441279
0.24447
0.0536454
-0.110209
-0.231523
-0.301429
-0.318212
-0.286872
-0.21785
-0.125066
-0.0234837
0.0735303
0.156739
0.223132
0.277255
0.331486
0.405101
0.522126
0.7082
0.986855
1.37581
1.88392
2.50945
3.24008
4.05484
4.92786
5.83329
6.75049
7.66874
8.59015
9.53026
10.516
11.5808
12.7578
14.0718
15.5318
17.1241
18.8095
20.5226
22.1759
23.668
24.8932
25.7548
26.1762
26.1122
25.5557
24.5409
23.1408
21.4606
19.6274
17.7762
16.037
14.5209
14.5209
14.5209
14.5209
14.5209
14.5209
14.5209
14.5209
14.5209
14.5209
14.5209
14.5209
14.5209
14.5209
14.5209
14.5209
14.5209
14.5209
14.5209
14.5209
14.5209
