-137.045
-101.975
-62.961
-21.4165
20.8439
61.7392
99.0993
130.863
155.276
171.064
177.557
174.763
163.365
144.659
120.428
92.7744
63.9281
36.0506
11.0563
-9.52981
-24.6667
-33.8374
-37.035
-34.7028
-27.6384
-16.8782
-3.57575
11.1105
26.111
40.5124
53.5958
64.8475
73.9467
80.7375
85.1921
87.3738
87.4046
85.4434
81.6732
76.2989
69.5507
61.6898
53.0123
43.8475
34.5482
25.4741
16.9686
9.33275
2.79868
-2.49149
-6.49983
-9.29667
-11.054
-12.0292
-12.5407
-12.9393
-13.5781
-14.7845
-16.8352
-19.9379
-24.2165
-29.7036
-36.3344
-43.9466
-52.2817
-60.9902
-69.6419
-77.7411
-84.7492
-90.1146
-93.31
-93.874
-91.456
-85.8569
-77.0641
-65.2731
-50.8929
-34.5337
-16.9752
0.88027
18.0634
33.5961
46.5424
56.0432
61.3306
61.7182
56.5709
45.2643
27.1477
1.52872
-32.3008
-74.9868
-126.978
-188.34
-258.549
-336.278
-419.244
-504.129
-586.626
-661.631
-723.571
-766.868
-786.477
-778.45
-740.449
-672.136
-575.379
-454.229
-314.67
-164.143
-10.9058
136.691
270.951
385.485
475.723
539.212
575.681
586.882
576.226
548.295
508.269
461.363
412.335
365.112
322.559
286.406
257.314
235.043
218.688
206.938
198.32
191.4
184.924
177.893
169.596
159.581
147.623
133.671
117.807
100.217
81.1681
61.0058
40.1462
19.0684
-1.70338
-21.6295
-40.196
-56.9643
-71.6209
-84.0221
-94.2231
-102.487
-109.269
-115.179
-120.917
-127.203
-134.693
-143.905
-155.161
-168.541
-183.872
-200.742
-218.538
-236.498
-253.786
-269.559
-283.033
-293.533
-300.533
-303.669
-302.739
-297.699
-288.64
-275.777
-259.428
-240.014
-218.044
-194.115
-168.9
-143.139
-117.606
-93.0812
-70.3052
-49.9308
-32.4764
-18.2867
-7.50609
-0.068601
4.29155
6.01119
5.65321
3.85079
1.24713
-1.56247
-4.07974
-5.93891
-6.92536
-6.97657
-6.16668
-4.67775
-2.76228
-0.702097
1.23126
2.81008
3.87469
4.34642
4.22892
3.59907
2.58961
1.36666
0.105427
-1.03267
-1.91867
-2.46862
-2.64911
-2.47556
-2.00438
-1.32047
-0.522059
0.294616
1.04906
1.68678
2.18516
2.55467
2.83571
3.09232
3.40392
3.85672
4.53609
5.52086
6.88015
8.6728
10.949
13.7538
17.13
21.1216
25.7731
31.1264
37.2134
44.0447
51.5976
59.8031
68.5368
77.6156
86.8004
95.8079
104.328
112.046
118.667
123.931
127.633
129.622
129.799
128.11
124.529
119.054
111.7
102.503
91.5411
78.9475
64.9361
49.8165
33.997
17.9694
2.27044
-12.5804
-26.1648
-38.2635
-48.9577
-58.7174
-68.4574
-79.5414
-93.7165
-112.968
-139.293
-174.409
-219.421
-274.493
-338.574
-409.216
-482.555
-553.454
-615.844
-663.227
-689.307
-688.684
-657.517
-594.09
-499.175
-376.165
-230.916
-71.326
93.3245
253.191
398.758
521.705
615.646
676.672
703.619
698.072
664.07
607.596
535.881
456.627
377.231
304.09
242.062
194.137
161.329
142.805
136.194
138.054
144.416
151.329
155.36
153.971
145.756
130.509
109.129
83.4004
55.6722
28.5008
4.29292
-14.9974
-28.0881
-34.4827
-34.474
-29.048
-19.7093
-8.259
3.44313
13.6986
21.1469
24.8802
24.489
20.0403
12.0001
1.1168
-11.7138
-25.5807
-39.671
-53.3492
-66.1983
-78.022
-88.8118
-98.692
-107.852
-116.479
-124.702
-132.556
-139.964
-146.753
-152.676
-157.456
-160.836
-162.621
-162.714
-161.14
-158.044
-153.685
-148.397
-142.551
-136.507
-130.563
-124.908
-119.6
-114.543
-109.494
-104.091
-97.8868
-90.4085
-81.211
-69.9359
-56.3595
-40.4287
-22.2789
-2.23291
19.2184
41.4529
63.7655
85.425
105.732
124.072
139.962
153.082
163.293
170.634
175.31
177.661
178.124
177.186
175.337
173.025
170.618
168.369
166.409
164.733
163.216
161.634
159.688
157.045
153.371
148.369
141.813
133.568
123.615
112.056
99.1154
85.1279
70.5201
55.7809
41.4264
27.9611
15.8385
5.42518
-3.02815
-9.40528
-13.7308
-16.1631
-16.9745
-16.5214
-15.2065
-13.4389
-11.5951
-9.98591
-8.83219
-8.25171
-8.25765
-8.7682
-9.62535
-10.6202
-11.521
-12.1015
-12.1649
-11.5629
-10.2059
-8.06699
-5.17808
-1.62165
2.48012
6.97617
11.6954
16.4521
21.0488
25.2762
28.9132
31.729
33.4898
33.9705
32.9743
30.3551
26.044
20.0728
12.5916
3.87699
-5.67387
-15.5622
-25.2204
-34.0559
-41.5009
-47.0638
-50.3751
-51.2243
-49.5816
-45.6034
-39.6203
-32.109
-23.6519
-14.8878
-6.46001
1.03334
7.08257
11.2989
13.435
13.3923
11.2173
7.08693
1.28732
-5.81231
-13.7876
-22.1867
-30.5553
-38.4589
-45.5024
-51.3475
-55.7314
-58.4897
-59.5861
-59.1517
-57.5327
-55.3437
-53.517
-53.3376
-56.4461
-64.794
-80.5331
-105.831
-142.609
-192.215
-255.066
-330.299
-415.503
-506.588
-597.854
-682.299
-752.164
-799.672
-817.888
-801.586
-747.991
-657.303
-532.887
-381.116
-210.847
-32.6114
142.402
303.428
441.153
548.552
621.46
658.801
662.478
636.96
588.612
524.892
453.49
381.533
314.926
257.91
212.842
180.23
158.966
146.725
140.459
136.907
133.074
126.607
116.037
100.878
81.5757
59.3403
35.8878
13.1404
-7.07338
-23.2789
-34.5454
-40.5884
-41.7776
-39.0599
-33.8126
-27.6532
-22.2323
-19.0367
-19.2268
-23.5239
-32.1568
-44.8691
-60.9809
-79.4927
-99.2161
-118.915
-137.439
-153.836
-167.43
-177.867
-185.112
-189.416
-191.251
-191.223
-189.978
-188.112
-186.092
-184.203
-182.515
-180.889
-179.007
-176.421
-172.624
-167.119
-159.498
-149.501
-137.058
-122.32
-105.657
-87.6328
-68.9657
-50.4633
-32.9527
-17.2053
-3.86716
6.59798
13.9473
18.1749
19.5039
18.3556
15.301
10.9987
6.12794
1.32366
-2.87955
-6.08876
-8.07594
-8.78184
-8.30153
-6.8548
-4.74599
-2.31871
0.0888878
2.18327
3.74527
4.6479
4.86162
4.44769
3.54182
2.331
1.02697
-0.160202
-1.04539
-1.48616
-1.39342
-0.734612
0.470238
2.15831
4.2378
6.60367
9.15319
11.7994
14.4812
17.1684
19.8626
22.5925
25.4052
28.3544
31.4861
34.8249
38.3617
42.0446
45.7757
49.4137
52.7828
55.6883
57.9354
59.3498
59.7988
59.2067
57.5662
54.9412
51.4622
47.3143
42.7191
37.9141
33.1301
28.5722
24.4034
20.7354
17.6253
15.0781
13.0552
11.4854
10.278
9.33523
8.56316
7.87943
7.21783
6.52939
5.78087
4.9511
4.02612
2.99375
1.83778
0.531905
-0.966487
-2.72247
-4.82879
-7.40894
-10.6166
-14.6301
-19.6416
-25.8397
-33.3891
-42.4059
-52.9339
-64.9229
-78.2134
-92.5291
-107.48
-122.58
-137.269
-150.958
-163.076
-173.122
-180.73
-185.727
-188.197
-188.535
-187.492
-186.207
-186.203
-189.356
-197.798
-213.774
-239.419
-276.483
-326.009
-388.004
-461.153
-542.625
-628.037
-711.609
-786.54
-845.573
-881.718
-889.04
-863.403
-803.089
-709.174
-585.608
-438.971
-277.927
-112.432
47.2205
191.38
311.958
403.154
461.929
488.164
484.502
455.91
409.012
351.298
290.287
232.764
184.147
148.07
126.199
118.283
122.417
135.463
153.57
172.719
189.223
200.137
203.527
198.598
185.662
165.975
141.488
114.531
87.4901
62.5167
41.2916
24.8771
13.659
7.37669
5.2286
6.03011
8.39904
10.9423
12.4203
11.8715
8.686
2.62557
-6.20536
-17.427
-30.475
-44.6992
-59.4547
-74.1745
-88.4163
-101.881
-114.405
-125.935
-136.491
-146.121
-154.869
-162.747
-169.723
-175.719
-180.629
-184.334
-186.727
-187.74
-187.353
-185.609
-182.611
-178.513
-173.501
-167.774
-161.519
-154.887
-147.977
-140.822
-133.392
-125.599
-117.315
-108.403
-98.7445
-88.2786
-77.0266
-65.1141
-52.777
-40.3533
-28.2582
-16.9476
-6.8722
1.5708
8.08207
12.4949
14.7957
15.1266
13.7716
11.1263
7.65619
3.84842
0.163614
-3.00737
-5.37599
-6.77469
-7.16001
-6.60056
-5.25255
-3.32673
-1.05223
1.35763
3.73281
5.96385
8.00745
9.88043
11.644
13.3817
15.1751
17.0812
19.1165
21.2492
23.4009
25.4584
27.2921
28.7787
29.8236
30.3797
30.4597
30.1389
29.5485
28.8611
28.2685
27.957
28.0822
28.7476
29.9896
31.7717
33.9879
36.477
39.0439
41.4882
43.6337
45.3571
46.6101
47.4334
47.9594
48.4027
49.0408
50.1845
52.1414
55.1756
59.4625
65.0435
71.7774
79.2918
86.935
93.7349
98.373
99.189
94.2313
81.3731
58.504
23.8013
-23.934
-84.9109
-158.004
-240.501
-328.007
-414.565
-493.033
-555.677
-594.973
-604.477
-579.679
-518.708
-422.764
-296.214
-146.326
17.3625
183.942
342.205
481.756
594.027
673.077
716.084
723.484
698.749
647.847
578.469
499.109
418.126
342.888
279.093
230.334
197.938
181.077
177.118
182.148
191.597
200.886
206.005
203.977
193.138
173.243
145.376
111.707
75.1335
38.8593
5.96904
-20.9463
-40.0754
-50.5531
-52.4986
-46.9299
-35.5783
-20.6312
-4.44506
10.7355
23.0169
31.0285
34.0131
31.833
24.9019
14.0588
0.409186
-14.8435
-30.5518
-45.7471
-59.7181
-72.0441
-82.5825
-91.4223
-98.8135
-105.087
-110.576
-115.556
-120.198
-124.549
-128.54
-132.004
-134.718
-136.437
-136.941
-136.062
-133.71
-129.872
-124.613
-118.058
-110.372
-101.737
-92.3332
-82.3236
-71.8494
-61.028
-49.9587
-38.7324
-27.4411
-16.1871
-5.08802
5.72257
16.1001
25.8977
34.9786
43.2286
50.5675
56.9574
62.406
66.9645
70.7209
73.7886
76.2925
78.3538
80.0766
81.5355
82.768
83.7716
84.5043
84.8912
84.8334
84.2205
82.9437
80.9086
78.0476
74.3276
69.7566
64.3841
58.3
51.6283
44.5191
37.1385
29.6576
22.2414
15.0391
8.17611
1.74892
-4.1759
-9.55879
-14.3798
-18.6274
-22.2852
-25.3184
-27.6625
-29.2177
-29.851
-29.4074
-27.7303
-24.6888
-20.2107
-14.314
-7.13376
1.06079
9.86458
18.7513
27.106
34.2719
39.6093
42.5571
42.6915
39.7732
33.7778
24.9034
13.5566
0.315352
-14.1246
-29.0148
-43.6218
-57.2907
-69.4961
-79.8758
-88.2437
-94.5829
-99.02
-101.788
-103.181
-103.511
-103.065
-102.079
-100.72
-99.0764
-97.1663
-94.9455
-92.3234
-89.1794
-85.3793
-80.7949
-75.3257
-68.928
-61.6533
-53.6959
-45.4504
-37.5707
-31.0231
-27.1157
-27.4893
-34.0496
-48.8256
-73.7484
-110.356
-159.449
-220.738
-292.548
-371.63
-453.167
-530.981
-597.988
-646.847
-670.75
-664.249
-624.01
-549.379
-442.662
-309.085
-156.389
5.86151
167.202
317.299
446.961
549.009
618.903
655.063
658.844
634.203
587.099
524.723
454.651
384.031
318.9
263.691
220.972
191.44
174.12
166.741
166.226
169.205
172.499
173.519
170.531
162.767
150.402
134.394
116.239
97.6787
80.4078
65.8147
54.7987
47.6739
44.167
43.5002
44.5391
45.9786
46.5376
45.1341
41.0183
33.8496
23.7118
11.0689
-3.32486
-18.5468
-33.6386
-47.7324
-60.1538
-70.4894
-78.6151
-84.6833
-89.0749
-92.3264
-95.0429
-97.8094
-101.113
-105.281
-110.451
-116.555
-123.341
-130.407
-137.252
-143.334
-148.126
-151.169
-152.115
-150.751
-147.016
-141.002
-132.94
-123.179
-112.157
-100.366
-88.3117
-76.4799
-65.3014
-55.1236
-46.1897
-38.6277
-32.4497
-27.5616
-23.7832
-20.8746
-18.5687
-16.6025
-14.7469
-12.8291
-10.7458
-8.46625
-6.02433
-3.5024
-1.00879
1.34679
3.47624
5.33085
6.9113
8.26856
9.49587
10.7134
12.0484
13.6137
15.4889
17.706
20.2432
23.0258
25.9355
28.8249
31.5364
33.9205
35.8525
37.244
38.0487
38.2617
37.9132
37.0586
35.7662
34.1049
32.1346
29.8995
27.4255
24.721
21.7821
18.5989
15.1636
11.4779
7.5593
3.44627
-0.800093
-5.09595
-9.33731
-13.4045
-17.1684
-20.497
-23.2629
-25.3506
-26.6624
-27.1248
-26.6936
-25.3584
-23.1457
-20.1219
-16.3935
-12.1063
-7.44204
-2.61161
2.15515
6.6236
10.5724
13.8139
16.2146
17.7106
18.3127
18.0946
17.1598
15.5828
13.3299
10.1643
5.55469
-1.39525
-11.9681
-27.7827
-50.6531
-82.3515
-124.286
-177.124
-240.424
-312.325
-389.386
-466.625
-537.791
-595.88
-633.838
-645.379
-625.808
-572.725
-486.512
-370.506
-230.835
-75.9104
84.3567
239.529
379.677
496.355
583.396
637.427
658.069
647.791
611.47
555.7
487.981
415.856
346.13
284.242
233.857
196.706
172.667
160.057
156.066
157.283
160.221
161.78
159.605
152.298
139.479
121.705
100.277
76.968
53.7298
32.4016
14.4717
0.910509
-7.91048
-12.2138
-12.7352
-10.5854
-7.07977
-3.55847
-1.22242
-1.00256
-3.47539
-8.8302
-16.8869
-27.1572
-38.9375
-51.4198
-63.8044
-75.4019
-85.7109
-94.4659
-101.649
-107.468
-112.308
-116.657
-121.028
-125.876
-131.53
-138.141
-145.657
-153.82
-162.19
-170.195
-177.186
-182.507
-185.566
-185.894
-183.198
-177.384
-168.572
-157.078
-143.384
-128.091
-111.862
-95.3615
-79.2118
-63.944
-49.9737
-37.587
-26.9408
-18.0742
-10.9268
-5.35975
-1.17715
1.85461
3.99083
5.49485
6.62593
7.62727
8.7133
10.0561
11.7721
13.9098
16.4432
19.2692
22.2156
25.0549
27.5277
29.37
30.3435
30.2636
29.0229
26.6057
23.093
18.6557
13.5389
8.03699
2.46534
-2.87054
-7.70263
-11.8227
-15.0963
-17.4683
-18.958
-19.6475
-19.6639
-19.1582
-18.2844
-17.1817
-15.9602
-14.6933
-13.4155
-12.1261
-10.7967
-9.38182
-7.82985
-6.09474
-4.1457
-1.97482
0.398047
2.92364
5.52485
8.1016
10.5384
12.7144
14.5144
15.8404
16.6222
16.8255
16.4576
15.5687
14.2487
12.6208
10.8311
9.0356
7.38668
6.01929
5.03911
4.51344
4.46587
4.87513
5.67841
6.77855
8.05459
9.37454
10.6089
11.6437
12.3913
12.7975
12.845
12.5519
11.9654
11.1531
10.1914
9.15347
8.09887
7.06486
6.06175
5.07158
4.05033
2.93237
1.63634
0.070863
-1.86038
-4.25462
-7.20649
-10.8041
-15.1236
-20.2219
-26.1273
-32.8285
-40.2653
-48.3207
-56.8191
-65.5304
-74.181
-82.4722
-90.1035
-96.7987
-102.333
-106.561
-109.437
-111.045
-111.619
-111.572
-111.524
-112.333
-115.115
-121.243
-132.319
-150.076
-176.232
-212.257
-259.088
-316.799
-384.298
-459.08
-537.138
-613.052
-680.315
-731.87
-760.832
-761.294
-729.121
-662.615
-562.938
-434.224
-283.341
-119.326
47.4498
206.282
347.182
461.84
544.391
591.907
604.547
585.38
539.908
475.356
399.823
321.41
247.402
183.619
133.973
100.282
82.3335
78.1614
84.5024
97.3435
112.498
126.134
135.2
137.708
132.847
120.942
103.276
81.8056
58.8264
36.6322
17.2099
2.00764
-8.20286
-13.3628
-14.0665
-11.4238
-6.87067
-1.95625
1.86174
3.38959
1.81851
-3.216
-11.6374
-22.9869
-36.524
-51.3511
-66.5441
-81.2704
-94.8814
-106.969
-117.384
-126.22
-133.76
-140.411
-146.624
-152.811
-159.281
-166.184
-173.488
-180.969
-188.235
-194.766
-199.967
-203.236
-204.024
-201.902
-196.604
-188.062
-176.418
-162.018
-145.385
-127.181
-108.146
-89.051
-70.63
-53.534
-38.2873
-25.2594
-14.6527
-6.50416
-0.700915
2.99377
4.90701
5.41951
4.92895
3.81682
2.42132
1.01789
-0.191789
-1.08255
-1.60099
-1.75499
-1.59906
-1.21786
-0.709539
-0.170868
0.314808
0.685799
0.906287
0.966678
0.880685
0.680038
0.407921
0.112338
-0.159479
-0.364685
-0.466013
-0.430583
-0.22702
0.177958
0.82211
1.74812
3.0011
4.62294
6.64406
9.07369
11.8903
15.0336
18.401
21.8475
25.1929
28.2334
30.7583
32.5697
33.5029
33.4448
32.3483
30.2402
27.2223
23.464
19.1892
14.6567
10.1384
5.89601
2.16007
-0.887717
-3.12634
-4.50117
-5.02302
-4.76116
-3.83144
-2.38095
-0.571125
1.43894
3.50721
5.52012
7.39951
9.10472
10.6298
11.9962
13.2428
14.4132
15.5439
16.6539
17.7367
18.7573
19.6528
20.3381
20.7148
20.6822
20.1496
19.0484
17.3413
15.029
12.1531
8.79366
5.0621
1.08841
-2.99874
-7.09978
-11.181
-15.3204
-19.7606
-24.9638
-31.6614
-40.8846
-53.9637
-72.4771
-98.1369
-132.601
-177.216
-232.698
-298.806
-374.035
-455.415
-538.463
-617.343
-685.256
-735.038
-759.913
-754.311
-714.631
-639.85
-531.865
-395.511
-238.24
-69.4818
100.235
260.295
401.021
514.586
595.703
642.029
654.229
635.726
592.166
530.686
459.074
384.933
314.929
254.216
206.088
171.866
151.031
141.545
140.322
143.762
148.286
150.81
149.087
141.916
129.177
111.726
91.1646
69.5329
48.975
31.4184
18.3144
10.4652
7.95481
10.1833
15.9899
23.8411
32.0536
39.0179
43.3948
44.2594
41.1804
34.2283
23.9196
11.1088
-3.15122
-17.7613
-31.7183
-44.2313
-54.7986
-63.2401
-69.6839
-74.5134
-78.2851
-81.6304
-85.1552
-89.3508
-94.5276
-100.778
-107.97
-115.775
-123.716
-131.235
-137.763
-142.792
-145.926
-146.917
-145.678
-142.273
-136.886
-129.785
-121.276
-111.671
-101.252
-90.2604
-78.8951
-67.3198
-55.6792
-44.1165
-32.7864
-21.8621
-11.5328
-1.99243
6.57759
14.0295
20.2686
25.2685
29.0769
31.8124
33.6502
34.7999
35.4773
35.8748
36.1349
36.3297
36.4508
36.4105
36.0544
35.1841
33.5872
31.0704
27.4912
22.785
16.9833
10.2208
2.73139
-5.16826
-13.1035
-20.6739
-27.4881
-33.1987
-37.532
-40.3108
-41.4672
-41.0449
-39.1908
-36.1368
-32.176
-27.6334
-22.8365
-18.0883
-13.645
-9.69979
-6.3748
-3.72045
-1.72124
-0.306899
0.632846
1.23188
1.63117
1.96368
2.34166
2.84732
3.52724
4.39066
5.41165
6.53448
7.68164
8.76354
9.68877
10.374
10.7523
10.7797
10.4384
9.7376
8.71091
7.41141
5.90445
4.25918
2.53984
0.797949
-0.93316
-2.64044
-4.32904
-6.01599
-7.72052
-9.45231
-11.1999
-12.9215
-14.5395
-15.9419
-16.9889
-17.5259
-17.4013
-16.4858
-14.6917
-11.988
-8.41062
-4.06394
0.885284
6.22211
11.7039
17.0845
22.1396
26.6877
30.6054
33.8295
36.3458
38.1591
39.2467
39.4945
38.6239
36.1171
31.1546
22.5832
8.93173
-11.5076
-40.5196
-79.7271
-130.286
-192.545
-265.715
-347.607
-434.505
-521.22
-601.363
-667.831
-713.479
-731.898
-718.21
-669.762
-586.62
-471.782
-331.061
-172.64
-6.3426
157.286
307.998
436.815
536.864
603.957
636.877
637.337
609.623
559.997
495.912
425.162
355.049
291.675
239.418
200.654
175.733
163.191
160.162
162.921
167.482
170.167
168.086
159.463
143.788
121.781
95.1941
66.4864
38.4266
13.684
-5.53884
-17.7839
-22.4972
-20.0572
-11.6789
0.78399
15.1034
28.97
40.2737
47.3363
49.0725
45.0636
35.5444
21.3108
3.56946
-16.2474
-36.6747
-56.3892
-74.3456
-89.8613
-102.644
-112.763
-120.581
-126.653
-131.611
-136.057
-140.475
-145.168
-150.232
-155.565
-160.901
-165.868
-170.054
-173.075
-174.63
-174.542
-172.777
-169.439
-164.748
-159.002
-152.531
-145.645
-138.599
-131.553
-124.562
-117.571
-110.439
-102.965
-94.9326
-86.1503
-76.4948
-65.94
-54.574
-42.5992
-30.3153
-18.0897
-6.31766
4.62123
14.403
22.7921
29.6614
34.9988
38.8991
41.5444
43.1751
44.0566
44.4456
44.5599
44.5554
44.5116
44.4281
44.2309
43.789
42.9374
41.5055
39.3462
36.3632
32.5323
27.915
22.6625
17.0095
11.2579
5.75271
0.852307
-3.10483
-5.83254
-7.12607
-6.88453
-5.12438
-1.98235
2.29301
7.36057
12.815
18.222
23.1562
27.2386
30.1694
31.7524
31.9094
30.6827
28.2254
24.7821
20.661
16.2022
11.7436
7.5903
3.98915
1.11067
-0.959407
-2.21953
-2.74315
-2.66263
-2.14861
-1.38734
-0.558702
0.182731
0.721754
0.990516
0.970059
0.685838
0.198292
-0.409914
-1.0481
-1.63126
-2.09159
-2.38636
-2.50151
-2.45071
-2.27042
-2.01194
-1.73202
-1.48331
-1.30646
-1.22477
-1.24206
-1.34368
-1.50018
-1.67233
-1.81671
-1.89042
-1.85471
-1.67695
-1.3316
-0.80076
-0.0751817
0.843375
1.93795
3.17033
4.47377
5.74578
6.84281
7.57908
7.73141
7.0514
5.28518
2.19951
-2.38861
-8.58232
-16.38
-25.6588
-36.1709
-47.5525
-59.3475
-71.0423
-82.1078
-92.0445
-100.424
-106.924
-111.346
-113.626
-113.822
-112.099
-108.693
-103.886
-97.9761
-91.2595
-84.0283
-76.5859
-69.2802
-62.5521
-56.9932
-53.4013
-52.8208
-56.5533
-66.1199
-83.1645
-109.288
-145.817
-193.52
-252.304
-320.937
-396.843
-476.034
-553.22
-622.118
-675.952
-708.114
-712.9
-686.237
-626.297
-533.904
-412.664
-268.787
-110.599
52.1863
209.385
351.309
469.687
558.429
614.144
636.352
627.393
592.032
536.829
469.365
397.396
328.061
267.21
218.935
185.329
166.49
160.756
165.11
175.707
188.438
199.478
205.731
205.147
196.876
181.251
159.626
134.102
107.171
81.3591
58.8785
41.3636
29.6966
23.9471
23.4195
26.795
32.341
38.1565
42.4198
43.6073
40.6584
33.071
20.9212
4.81104
-14.2428
-34.961
-55.9719
-75.9776
-93.8968
-108.967
-120.798
-129.375
-135.017
-138.286
-139.887
-140.548
-140.91
-141.438
-142.363
-143.668
-145.097
-146.215
-146.484
-145.352
-142.343
-137.14
-129.634
-119.954
-108.46
-95.7022
-82.363
-69.1793
-56.8598
-46.0099
-37.0699
-30.2765
-25.6494
-23.004
-21.9864
-22.1251
-22.8935
-23.772
-24.3057
-24.1489
-23.094
-21.0815
-18.192
-14.6235
-10.6562
-6.61168
-2.81054
0.465756
3.00511
4.68422
5.47603
5.44546
4.73535
3.54505
2.10526
0.652007
-0.596886
-1.46093
-1.8101
-1.57134
-0.728894
0.68112
2.58028
4.86036
7.3971
10.0638
12.7438
15.3399
17.7812
20.0265
22.0629
23.9021
25.5731
27.1132
28.5585
29.9349
31.2518
32.4996
33.6519
34.6722
35.5246
36.1869
36.6627
36.9904
37.246
37.5382
37.9957
38.7474
39.8986
41.5066
43.561
45.9706
48.5627
51.0931
53.2685
54.7774
55.3266
54.6778
52.6796
49.2907
44.5908
38.7772
32.1488
25.0782
17.9754
11.2485
5.26463
0.316166
-3.4037
-5.81462
-6.95022
-6.94737
-6.02545
-4.45829
-2.54257
-0.566163
1.21978
2.6223
3.51954
3.86421
3.67787
3.03742
2.056
0.861403
-0.425244
-1.70732
-2.92504
-4.06092
-5.138
-6.21177
-7.35736
-8.65416
-10.1704
-11.9502
-14.004
-16.3053
-18.7916
-21.3717
-23.9356
-26.3678
-28.5597
-30.4217
-31.8911
-32.9365
-33.5576
-33.7803
-33.6492
-33.2182
-32.5407
-31.6616
-30.6119
-29.4067
-28.0456
-26.5167
-24.8017
-22.8819
-20.7435
-18.3822
-15.8055
-13.0339
-10.1
-7.04712
-3.92701
-0.797457
2.27959
5.23973
8.01757
10.5483
12.7699
14.6254
16.067
17.0598
17.5854
17.6464
17.2676
16.497
15.4034
14.0723
12.5988
11.0799
9.60577
8.25126
7.06945
6.08726
5.30414
4.69377
4.20862
3.78672
3.35957
2.86038
2.2314
1.42952
0.429777
-0.773755
-2.16929
-3.73069
-5.42226
-7.20422
-9.03824
-10.8919
-12.7414
-14.5718
-16.3741
-18.1404
-19.8561
-21.4924
-22.9995
-24.3027
-25.3024
-25.8802
-25.9098
-25.2728
-23.8773
-21.6769
-18.6868
-14.9948
-10.7633
-6.22274
-1.6552
2.63013
6.32751
9.16747
10.9484
11.5626
11.0137
9.42191
7.01722
4.11944
1.10763
-1.61807
-3.67791
-4.75268
-4.61776
-3.1672
-0.425031
3.45746
8.21811
13.5119
18.9471
24.1258
28.6834
32.3235
34.8435
36.15
36.2604
35.2934
33.4492
30.9817
28.1671
25.273
22.5301
20.1115
18.1194
16.5821
15.4593
14.6556
14.0389
13.4617
12.7818
11.8805
10.6755
9.12817
7.2437
5.06578
2.66652
0.133762
-2.44233
-4.9811
-7.42019
-9.72014
-11.8643
-13.8549
-15.705
-17.4299
-19.0372
-20.5189
-21.8461
-22.9669
-23.8086
-24.2845
-24.3044
-23.7909
-22.7016
-21.0569
-18.9755
-16.7163
-14.7232
-13.6697
-14.4936
-18.4116
-26.8979
-41.6155
-64.2851
-96.4874
-139.404
-193.514
-258.291
-331.942
-411.253
-491.592
-567.117
-631.191
-676.985
-698.208
-689.882
-649.046
-575.288
-471.02
-341.433
-194.123
-38.421
115.5
257.638
379.158
473.262
535.821
565.697
564.719
537.337
489.997
430.335
366.276
305.177
253.083
214.195
190.589
182.201
187.059
201.718
221.818
242.707
260.034
270.245
270.945
261.08
240.942
212.018
176.7
137.927
98.7824
62.1236
30.2642
4.75504
-13.7248
-25.3645
-31.1151
-32.5043
-31.4016
-29.7652
-29.4041
-31.7795
-37.866
-48.0821
-62.292
-79.8709
-99.8208
-120.918
-141.872
-161.478
-178.742
-192.972
-203.821
-211.283
-215.657
-217.462
-217.349
-215.992
-213.99
-211.792
-209.643
-207.562
-205.365
-202.701
-199.121
-194.161
-187.416
-178.612
-167.66
-154.677
-139.989
-124.095
-107.62
-91.241
-75.6202
-61.3312
-48.8058
-38.2981
-29.8731
-23.4187
-18.6778
-15.2956
-12.8729
-11.0195
-9.39961
-7.7642
-5.96851
-3.97274
-1.82882
0.343792
2.38834
4.14238
5.46615
6.26403
6.49725
6.18688
5.40792
4.27659
2.93314
1.52326
0.180821
-0.985915
-1.90316
-2.53493
-2.88122
-2.97189
-2.85779
-2.60068
-2.26347
-1.90217
-1.56017
-1.26538
-1.03007
-0.852898
-0.722361
-0.620714
-0.52749
-0.421877
-0.283589
-0.0923094
0.173819
0.539853
1.03497
1.69187
2.5443
3.62262
4.94813
6.52696
8.34477
10.3635
12.5206
14.7327
16.9009
18.9207
20.6923
22.1316
23.1798
23.8104
24.0325
23.889
23.4511
22.8086
22.0578
21.2883
20.5709
19.9484
19.4298
18.9899
18.5734
18.1038
17.4949
16.6633
15.5409
14.0849
12.2838
10.159
7.76205
5.16757
2.46349
-0.259621
-2.91872
-5.44618
-7.79427
-9.93566
-11.86
-13.5676
-15.0603
-16.3333
-17.3668
-18.1208
-18.5339
-18.5261
-18.0084
-16.8989
-15.1485
-12.7751
-9.9092
-6.84735
-4.1102
-2.49629
-3.11973
-7.41614
-17.0997
-34.0559
-60.1602
-97.0231
-145.676
-206.234
-277.573
-357.102
-440.667
-522.66
-596.345
-654.414
-689.701
-696.003
-668.884
-606.348
-509.291
-381.638
-230.141
-63.8399
106.749
270.624
417.36
538.099
626.367
678.623
694.47
676.543
630.071
562.194
481.124
395.25
312.292
238.601
178.663
134.859
107.473
94.9345
94.2382
101.483
112.448
123.14
130.25
131.474
125.674
112.88
94.1499
71.3121
46.6473
22.5446
1.1819
-15.7346
-27.1448
-32.7116
-32.7995
-28.37
-20.813
-11.7432
-2.79024
4.592
9.27336
10.5401
8.12577
2.18337
-6.79121
-18.0687
-30.8108
-44.1904
-57.4929
-70.1862
-81.9543
-92.6948
-102.485
-111.526
-120.078
-128.389
-136.643
-144.911
-153.133
-161.114
-168.536
-174.991
-180.024
-183.172
-184.019
-182.235
-177.612
-170.092
-159.779
-146.937
-131.98
-115.441
-97.9418
-80.1411
-62.694
-46.2019
-31.1716
-17.982
-6.8634
2.11
9.01306
14.0495
17.5214
19.7909
21.2403
22.2323
23.0766
24.0045
25.1544
26.5683
28.1992
29.9279
31.5861
32.9838
33.936
34.2884
33.9364
32.8381
31.0187
28.5671
25.625
22.3711
19.0014
15.7091
12.6654
10.0045
7.81333
6.12695
4.93016
4.16436
3.73858
3.54306
3.46375
3.39579
3.25471
2.98392
2.55806
1.98188
1.28515
0.514481
-0.276565
-1.03776
-1.73126
-2.33819
-2.86199
-3.32792
-3.77918
-4.27
-4.85707
-5.59052
-6.50595
-7.61877
-8.92166
-10.3857
-11.9648
-13.6024
-15.2402
-16.8256
-18.319
-19.6969
-20.9528
-22.0937
-23.134
-24.0877
-24.9598
-25.7391
-26.3935
-26.869
-27.0933
-26.9822
-26.4507
-25.4241
-23.8504
-21.7092
-19.0176
-15.8323
-12.246
-8.38069
-4.37664
-0.380946
3.46498
7.03639
10.2338
12.9887
15.265
17.0581
18.3904
19.3043
19.8544
20.0992
20.0929
19.8795
19.4879
18.9307
18.2049
17.2949
16.1779
14.8297
13.2315
11.3754
9.26882
6.93661
4.42146
1.78173
-0.912431
-3.58411
-6.15546
-8.55333
-10.7143
-12.5888
-14.1433
-15.3618
-16.2451
-16.8094
-17.0835
-17.1054
-16.9187
-16.5682
-16.0963
-15.5392
-14.924
-14.2668
-13.5724
-12.8349
-12.0405
-11.1715
-10.2104
-9.14558
-7.97524
-6.71067
-5.37745
-4.01456
-2.67139
-1.40301
-0.264392
0.695539
1.43938
1.94529
2.20926
2.24519
2.08297
1.76484
1.34055
0.862231
0.379417
-0.0648704
-0.436712
-0.712332
-0.8777
-0.927036
-0.86066
-0.682689
-0.398992
-0.0156727
0.461843
1.02917
1.68297
2.42074
3.2406
4.14093
5.11994
6.17493
7.30115
8.49032
9.72871
10.9953
12.2603
13.4839
14.6169
15.6022
16.3779
16.8822
17.0593
16.8659
16.2779
15.2958
13.9483
12.293
10.4139
8.4161
6.41645
4.53357
2.87646
1.53421
0.567674
0.00403845
-0.166
0.0100749
0.443166
0.993511
1.45207
1.50976
0.71481
-1.57682
-6.2481
-14.4492
-27.5891
-47.2701
-75.1524
-112.74
-161.097
-220.525
-290.235
-368.086
-450.435
-532.179
-607.001
-667.85
-707.598
-719.835
-699.675
-644.484
-554.403
-432.592
-285.128
-120.559
50.8464
218.071
370.427
498.607
595.58
657.225
682.631
674.03
636.397
576.757
503.318
424.521
348.151
280.575
226.227
187.349
164.024
154.449
155.413
162.885
172.647
180.868
184.568
181.921
172.365
156.535
136.04
113.125
90.2828
69.8592
53.7176
42.9925
37.9632
38.0536
41.9486
47.8031
53.5107
56.9908
56.4584
50.6409
38.9188
21.3771
-1.23241
-27.6081
-56.0749
-84.7935
-111.976
-136.078
-155.955
-170.948
-180.92
-186.213
-187.57
-185.998
-182.632
-178.582
-174.811
-172.035
-170.673
-170.833
-172.338
-174.793
-177.66
-180.352
-182.314
-183.096
-182.392
-180.062
-176.128
-170.738
-164.126
-156.564
-148.314
-139.592
-130.544
-121.245
-111.704
-101.891
-91.7658
-81.3102
-70.5541
-59.5956
-48.6074
-37.8301
-27.5541
-18.0919
-9.74451
-2.76753
2.65892
6.45295
8.64352
9.37171
8.88123
7.49943
5.61097
3.62678
1.95092
0.948171
0.914925
2.05569
4.46735
8.13264
12.9235
18.6144
24.9043
31.4452
37.8754
43.8518
49.0813
53.3447
56.5129
58.553
59.5243
59.565
58.8713
57.6723
56.2029
54.6784
53.2731
52.1062
51.2335
50.6484
50.2889
50.0507
49.8039
49.4107
48.7432
47.6981
46.2074
44.2449
41.8265
39.0071
35.8724
32.5287
29.0914
25.6733
22.3746
19.2752
16.43
13.868
11.5937
9.59158
7.83212
6.27872
4.89411
3.64599
2.51092
1.47642
0.541074
-0.28693
-0.99262
-1.55781
-1.96495
-2.20085
-2.25974
-2.14554
-1.87305
-1.46807
-0.966509
-0.412696
0.142837
0.645828
1.04073
1.27285
1.28999
1.0434
0.487999
-0.417801
-1.71246
-3.43112
-5.60437
-8.25551
-11.3962
-15.0207
-19.0992
-23.5709
-28.3385
-33.2649
-38.174
-42.8581
-47.093
-50.6652
-53.4107
-55.2682
-56.3428
-56.9764
-57.8138
-59.8527
-64.4591
-73.3316
-88.3986
-111.638
-144.822
-189.203
-245.174
-311.95
-387.338
-467.647
-547.79
-621.603
-682.36
-723.451
-739.129
-725.239
-679.814
-603.462
-499.466
-373.583
-233.555
-88.3821
52.5459
180.36
287.558
368.68
420.75
443.432
438.899
411.448
366.905
311.917
253.207
196.883
147.871
109.537
83.5104
69.7239
66.6436
71.6398
81.4494
92.6615
102.169
107.536
107.238
100.77
88.6107
72.0651
53.0169
33.6277
16.0265
2.02916
-7.07887
-10.675
-8.83675
-2.28696
7.73742
19.6707
31.8288
42.6164
50.7036
55.154
55.4911
51.7012
44.1794
33.6303
20.9433
7.05992
-7.14666
-20.9663
-33.9103
-45.7307
-56.4027
-66.0767
-75.0125
-83.5062
-91.822
-100.139
-108.519
-116.895
-125.086
-132.829
-139.815
-145.743
-150.356
-153.478
-155.035
-155.056
-153.662
-151.05
-147.454
-143.117
-138.256
-133.038
-127.565
-121.866
-115.907
-109.602
-102.842
-95.5179
-87.5502
-78.9114
-69.644
-59.8694
-49.7864
-39.6586
-29.7948
-20.5208
-12.1493
-4.94965
0.87855
5.22427
8.07459
9.5138
9.71243
8.90766
7.37802
5.41523
3.29688
1.26286
-0.501975
-1.87741
-2.80934
-3.30374
-3.41462
-3.22804
-2.84478
-2.36381
-1.86861
-1.4177
-1.04001
-0.735002
-0.476748
-0.220948
0.0866083
0.501447
1.0729
1.83861
2.82151
4.02952
5.45756
7.09123
8.91113
10.8965
13.0269
15.2818
17.6365
20.0557
22.4866
24.8513
27.0424
28.9226
30.3305
31.0919
31.0383
30.0282
27.971
24.848
20.7283
15.7759
10.2457
4.4689
-1.17262
-6.27842
-10.4658
-13.4051
-14.8499
-14.6586
-12.8051
-9.37772
-4.56656
1.35791
8.07331
15.2367
22.5154
29.6142
36.2953
42.3894
47.7954
52.4687
56.3986
59.5742
61.9417
63.3542
63.5191
61.9467
57.9102
50.4265
38.273
20.0513
-5.68911
-40.2642
-84.613
-139.02
-202.838
-274.262
-350.203
-426.315
-497.206
-556.831
-599.053
-618.299
-610.239
-572.39
-504.555
-409.028
-290.526
-155.838
-13.2358
128.297
259.918
373.764
463.675
525.719
558.469
562.999
542.622
502.405
448.532
387.598
325.91
268.892
220.628
183.606
158.66
145.106
141.025
143.665
149.885
156.589
161.109
161.48
156.6
146.265
131.077
112.272
91.4806
70.4615
50.855
33.9732
20.6566
11.2061
5.39267
2.53383
1.62146
1.47879
0.923946
-1.08101
-5.31263
-12.2112
-21.8534
-33.9704
-48.0058
-63.201
-78.6969
-93.6378
-107.264
-118.989
-128.442
-135.495
-140.247
-142.995
-144.179
-144.318
-143.938
-143.511
-143.393
-143.787
-144.725
-146.065
-147.515
-148.674
-149.083
-148.28
-145.862
-141.533
-135.144
-126.711
-116.42
-104.608
-91.731
-78.3181
-64.9193
-52.0519
-40.152
-29.537
-20.381
-12.7082
-6.40175
-1.22961
3.11853
6.98596
10.702
14.5382
18.6744
23.1764
27.9901
32.9514
37.8095
42.2618
45.9945
48.7237
50.2328
50.3993
49.2113
46.7686
43.272
39.0003
34.28
29.451
24.8325
20.6937
17.2317
14.559
12.701
11.6031
11.1452
11.1628
11.4691
11.8782
12.2246
12.3788
12.2564
11.8213
11.0829
10.088
8.91032
7.63686
6.3555
5.14351
4.05894
3.13557
2.38151
1.78131
1.30095
0.894746
0.513089
0.109899
-0.351169
-0.892505
-1.52073
-2.22741
-2.99215
-3.78777
-4.58678
-5.36866
-6.12662
-6.87274
-7.64021
-8.48177
-9.4638
-10.6564
-12.1209
-13.8963
-15.989
-18.3677
-20.9697
-23.72
-26.5675
-29.5372
-32.7959
-36.7235
-41.9784
-49.5414
-60.7189
-77.0874
-100.365
-132.202
-173.904
-226.097
-288.4
-359.136
-435.164
-511.886
-583.454
-643.215
-684.332
-700.54
-686.927
-640.64
-561.397
-451.736
-316.937
-164.626
-4.08514
154.63
301.678
428.389
528.087
596.67
632.898
638.345
617.057
574.947
519.025
456.566
394.309
337.787
290.857
255.473
231.708
218.005
211.59
209.014
206.704
201.484
190.989
173.928
150.184
120.745
87.4942
52.9005
19.6556
-9.69054
-33.0474
-49.0199
-57.0387
-57.3787
-51.0729
-39.7427
-25.3727
-10.0627
4.21008
15.7926
23.5002
26.6939
25.2884
19.6975
10.7311
-0.540473
-12.9341
-25.2972
-36.6294
-46.1733
-53.4665
-58.3534
-60.962
-61.6504
-60.9334
-59.4012
-57.638
-56.1523
-55.3242
-55.3741
-56.3538
-58.1582
-60.5534
-63.2158
-65.7762
-67.8611
-69.1279
-69.2897
-68.1279
-65.4948
-61.3088
-55.5452
-48.2287
-39.4285
-29.2585
-17.8816
-5.51595
7.56115
21.0142
34.4589
47.4812
59.6648
70.6254
80.0468
87.7144
93.5407
97.5783
100.017
101.168
101.423
101.218
100.971
101.031
101.624
102.82
104.508
106.395
108.029
108.842
108.21
105.519
100.243
92.0075
80.6444
66.2251
49.0689
29.7255
8.9323
-12.4472
-33.4986
-53.3353
-71.1746
-86.3995
-98.6041
-107.616
-113.493
-116.505
-117.086
-115.785
-113.202
-109.928
-106.493
-103.32
-100.694
-98.7535
-97.4885
-96.7558
-96.3066
-95.8206
-94.9446
-93.3315
-90.6745
-86.7361
-81.3678
-74.52
-66.2422
-56.6754
-46.0365
-34.5983
-22.6674
-10.5628
1.40265
12.936
23.7731
33.6822
42.4656
49.9592
56.0341
60.5994
63.6075
65.0619
65.0237
63.6166
61.0277
57.5016
53.3291
48.829
44.3251
40.1213
36.4779
33.5905
31.5759
30.4655
30.2075
30.6773
31.6948
33.0454
34.5045
35.8596
36.9294
37.5783
37.7228
37.3324
36.4229
35.0442
33.2658
31.1592
28.7838
26.1747
23.3376
20.2503
16.8722
13.1592
9.08346
4.65345
-0.0695735
-4.96173
-9.83678
-14.4578
-18.5596
-21.8801
-24.195
-25.3531
-25.304
-24.1159
-21.9776
-19.1865
-16.1207
-13.2001
-10.8412
-9.41082
-9.18517
-10.3199
-12.8339
-16.6092
-21.4058
-26.8882
-32.6611
-38.3071
-43.4237
-47.6554
-50.7174
-52.4119
-52.6353
-51.3784
-48.7197
-44.8144
-39.8787
-34.1722
-27.9781
-21.5829
-15.2565
-9.23385
-3.70104
1.21514
5.45061
9.00113
11.9128
14.267
16.1624
17.6953
18.9432
19.9521
20.7319
21.2595
21.49
21.3748
20.8836
20.026
18.8697
17.5493
16.2643
15.2638
14.8176
15.1788
16.5405
18.9947
22.4981
26.8541
31.7122
36.589
40.9103
44.0689
45.4921
44.7122
41.4278
35.5506
27.2287
16.8441
4.98395
-7.61314
-20.1269
-31.7353
-41.6939
-49.406
-54.4752
-56.7357
-56.2566
-53.321
-48.3846
-42.019
-34.8486
-27.4914
-20.5119
-14.3962
-9.55415
-6.35214
-5.17156
-6.48607
-10.9414
-19.4183
-33.0549
-53.207
-81.3287
-118.766
-166.473
-224.683
-292.572
-367.982
-447.276
-525.372
-595.996
-652.162
-686.849
-693.788
-668.272
-607.876
-512.965
-386.91
-235.967
-68.8115
104.234
272.168
424.385
551.697
647.205
706.897
729.924
718.517
677.587
614.057
536.017
451.824
369.234
294.684
232.775
186.015
154.819
137.749
131.939
133.637
138.802
143.647
145.108
141.149
130.914
114.699
93.7853
70.1486
46.1161
24.0038
5.792
-7.12454
-14.0868
-15.2108
-11.3219
-3.80125
5.62634
15.1321
23.0166
27.9075
28.901
25.6334
18.2803
7.4907
-5.73127
-20.1767
-34.5945
-47.8447
-59.0255
-67.5602
-73.2377
-76.2043
-76.9132
-76.0407
-74.3809
-72.7364
-71.8155
-72.1502
-74.043
-77.5455
-82.4701
-88.4297
-94.899
-101.287
-107.012
-111.569
-114.58
-115.828
-115.262
-112.988
-109.234
-104.304
-98.5371
-92.2499
-85.7042
-79.0769
-72.4482
-65.8043
-59.0538
-52.0542
-44.646
-36.6882
-28.0919
-18.8465
-9.03654
1.15371
11.4485
21.5
30.9176
39.3031
46.288
51.5697
54.9415
56.3135
55.7232
53.3324
49.4133
44.3235
38.4729
32.2877
26.1733
20.4813
15.4839
11.3575
8.17771
5.92447
4.4964
3.73218
3.43557
3.40085
3.43603
3.38142
3.12231
2.59549
1.78979
0.741573
-0.473572
-1.75189
-2.97389
-4.0172
-4.76868
-5.13521
-5.05222
-4.48953
-3.45423
-1.9903
-0.175301
1.88568
4.06821
6.2381
8.26154
10.0149
11.3936
12.3189
12.7426
12.6492
12.0554
11.0075
9.57655
7.85167
5.93306
3.92393
1.92306
0.0179981
-1.72018
-3.24038
-4.51295
-5.5289
-6.29734
-6.84127
-7.19246
-7.38594
-7.45498
-7.427
-7.32094
-7.14634
-6.90411
-6.58864
-6.19097
-5.70228
-5.11722
-4.43643
-3.66793
-2.82711
-1.9353
-1.01728
-0.0980496
0.800545
1.66281
2.48129
3.25773
4.00271
4.73402
5.47415
6.24724
7.07594
7.97876
8.96798
10.0483
11.2159
12.457
13.7466
15.0459
16.2995
17.4335
18.355
18.9542
19.1107
18.7034
17.6235
15.7895
13.1615
9.75278
5.63669
0.94676
-4.13006
-9.36706
-14.5167
-19.3327
-23.5928
-27.1189
-29.7932
-31.5676
-32.4656
-32.577
-32.0463
-31.0547
-29.7994
-28.4721
-27.2371
-26.2151
-25.4703
-25.0056
-24.765
-24.6427
-24.4983
-24.1764
-23.5268
-22.4253
-20.7893
-18.5903
-15.8582
-12.6797
-9.19013
-5.55939
-1.97508
1.37637
4.32747
6.74482
8.53983
9.67428
10.1605
10.0566
9.45838
8.48818
7.28358
5.98595
4.73042
3.63747
2.80645
2.31083
2.19486
2.47163
3.12239
4.09719
5.3171
6.67839
8.05872
9.3255
10.3463
11.0008
11.1932
10.865
10.0051
8.65827
6.92857
4.97752
3.01616
1.2904
0.0602855
-0.425423
0.0427356
1.60722
4.31927
8.1213
12.8387
18.1828
23.7666
29.1323
33.7889
37.258
39.1212
39.0662
36.9245
32.6975
26.5652
18.8775
10.1263
0.899756
-8.17821
-16.5203
-23.6553
-29.3099
-33.4857
-36.5259
-39.161
-42.5252
-48.132
-57.7988
-73.511
-97.2242
-130.608
-174.745
-229.827
-294.873
-367.532
-444.036
-519.308
-587.291
-641.449
-675.423
-683.75
-662.561
-610.157
-527.372
-417.663
-286.909
-142.917
5.28933
148.332
277.382
384.992
465.778
516.852
537.988
531.493
501.82
454.974
397.796
337.196
279.447
229.601
191.081
165.497
152.679
150.906
157.291
168.265
180.088
189.333
193.279
190.184
179.406
161.385
137.484
109.742
80.5573
52.3626
27.3218
7.08902
-7.34818
-15.7305
-18.4943
-16.6582
-11.6507
-5.10551
1.34683
6.2655
8.54335
7.4954
2.88706
-5.09447
-15.9155
-28.8023
-42.8627
-57.2037
-71.0329
-83.7312
-94.8934
-104.335
-112.068
-118.26
-123.177
-127.12
-130.378
-133.183
-135.681
-137.928
-139.891
-141.466
-142.507
-142.855
-142.362
-140.921
-138.477
-135.036
-130.656
-125.438
-119.504
-112.976
-105.958
-98.522
-90.7042
-82.5132
-73.945
-65.0039
-55.7246
-46.1903
-36.5412
-26.9742
-17.7295
-9.06836
-1.24527
5.52167
11.0767
15.3449
18.3401
20.1617
20.9806
21.0167
20.5116
19.6997
18.7821
17.9061
17.1525
16.5328
15.9942
15.4326
14.7117
13.6844
12.2147
10.1978
7.57536
4.34605
0.569382
-3.63576
-8.09818
-12.606
-16.9219
-20.8009
-24.0099
-26.347
-27.6596
-27.8591
-26.9314
-24.9403
-22.0249
-18.389
-14.2841
-9.98817
-5.7808
-1.91922
1.38328
3.97366
5.76862
6.75663
6.9926
6.58641
5.68705
4.46448
3.09143
1.72691
0.503185
-0.483166
-1.17545
-1.55661
-1.6451
-1.48763
-1.14996
-0.706772
-0.231661
0.211764
0.576911
0.838833
0.996164
1.07036
1.10255
1.14843
1.27211
1.53957
2.01276
2.74515
3.77919
5.14594
6.86666
8.95574
11.4242
14.2828
17.5428
21.2158
25.309
29.8186
34.7216
39.966
45.4633
51.083
56.6519
61.9591
66.7662
70.8223
73.8826
75.7274
76.1782
75.1078
72.4388
68.1292
62.1398
54.3872
44.6841
32.6765
17.7926
-0.781625
-24.0814
-53.2805
-89.5395
-133.787
-186.448
-247.163
-314.526
-385.921
-457.484
-524.254
-580.504
-620.26
-637.936
-629.02
-590.723
-522.471
-426.193
-306.313
-169.461
-23.901
121.238
256.854
374.765
468.5
533.891
569.398
576.129
557.577
519.103
467.242
408.927
350.721
298.153
255.223
224.128
205.224
197.202
197.455
202.56
208.816
212.762
211.617
203.59
188.035
165.444
137.293
105.774
73.4616
42.9473
16.5141
-4.13251
-18.0354
-25.0505
-25.8061
-21.5711
-14.0573
-5.18708
3.14315
9.27241
11.9366
10.3666
4.31958
-5.95391
-19.7934
-36.2476
-54.2104
-72.555
-90.2522
-106.46
-120.582
-132.286
-141.493
-148.343
-153.137
-156.273
-158.179
-159.26
-159.846
-160.162
-160.316
-160.295
-159.984
-159.191
-157.677
-155.196
-151.521
-146.48
-139.966
-131.951
-122.483
-111.672
-99.6817
-86.7029
-72.9407
-58.5966
-43.8582
-28.8932
-13.8489
1.14427
15.967
30.5045
44.6411
58.2573
71.2303
83.4378
94.7642
105.109
114.396
122.578
129.644
135.619
140.561
144.558
147.714
150.143
151.956
153.253
154.114
154.595
154.726
154.509
153.926
152.941
151.504
149.558
147.048
143.916
140.112
135.592
130.322
124.274
117.438
109.817
101.439
92.3606
82.6751
72.5169
62.0636
51.5331
41.1763
31.2636
22.0677
13.8433
6.80588
1.11275
-3.15225
-5.98728
-7.47375
-7.76949
-7.09466
-5.71171
-3.90172
-1.9397
-0.0715423
1.50491
2.65288
3.30258
3.44991
3.14857
2.49676
1.62066
0.656572
-0.266141
-1.03932
-1.58635
-1.86771
-1.88173
-1.66109
-1.26599
-0.775216
-0.276379
0.143537
0.406402
0.449303
0.228698
-0.277752
-1.07151
-2.13538
-3.43719
-4.93442
-6.57922
-8.3233
-10.1221
-11.9383
-13.7432
-15.5179
-17.2521
-18.9422
-20.5892
-22.1953
-23.7618
-25.2872
-26.7656
-28.1864
-29.5334
-30.7845
-31.9106
-32.8746
-33.6321
-34.1341
-34.3365
-34.2181
-33.81
-33.2377
-32.776
-32.9096
-34.3928
-38.2946
-46.0111
-59.2299
-79.8272
-109.688
-150.45
-203.185
-268.044
-343.933
-428.265
-516.852
-604.015
-682.908
-746.074
-786.183
-796.859
-773.498
-713.963
-619.038
-492.579
-341.319
-174.334
-2.2398
163.803
313.147
436.663
527.571
582.008
599.28
581.767
534.526
464.624
380.312
290.126
202.027
122.674
56.8983
7.42504
-25.1439
-42.1114
-46.2756
-41.3955
-31.6081
-20.8701
-12.489
-8.78961
-10.9425
-18.9566
-31.8195
-47.7521
-64.5331
-79.847
-91.6094
-98.2319
-98.8006
-93.1541
-81.8625
-66.1179
-47.5597
-28.0604
-9.50287
6.42585
18.4
25.5661
27.5915
24.6515
17.3632
6.6788
-6.24645
-20.1925
-34.0046
-46.7012
-57.5498
-66.1056
-72.2129
-75.9728
-77.6844
-77.7698
-76.6923
-74.882
-72.6741
-70.2715
-67.7315
-64.9798
-61.8462
-58.1151
-53.5837
-48.1153
-41.6822
-34.3898
-26.4783
-18.3033
-10.298
-2.92201
3.3937
8.29974
11.5707
13.1322
13.0701
11.6211
9.1468
6.09591
2.95838
0.217688
-1.6941
-2.4342
-1.77663
0.372585
3.973
8.85984
14.7647
21.3444
28.2148
34.9864
41.2969
46.8392
51.3811
54.7743
56.9551
57.9339
57.7786
56.5939
54.4991
51.6088
48.019
43.8007
39.0004
33.6486
27.7726
21.4115
14.6308
7.53224
0.258284
-7.01094
-14.0675
-20.6912
-26.6682
-31.81
-35.971
-39.0603
-41.0479
-41.9639
-41.8914
-40.9531
-39.2954
-37.0703
-34.4175
-31.4499
-28.2417
-24.823
-21.1798
-17.2606
-12.9885
-8.27852
-3.05744
2.71697
9.03885
15.8427
22.9989
30.3161
37.5523
44.4311
50.6633
55.9721
60.1191
62.9304
64.3189
64.3032
63.0177
60.7132
57.7464
54.5538
51.6124
49.3849
48.2527
48.4381
49.923
52.3698
55.0547
56.8269
56.1056
50.9324
39.0904
18.2986
-13.5181
-57.8981
-115.48
-185.656
-266.289
-353.576
-442.09
-525.056
-594.855
-643.725
-664.592
-651.925
-602.505
-515.988
-395.183
-245.98
-76.9228
101.526
277.95
441.069
580.807
689.232
761.254
795.002
791.855
756.129
694.474
615.059
526.652
437.7
355.514
285.647
231.513
194.285
173.043
165.153
166.795
173.582
181.174
185.828
184.806
176.635
161.165
139.464
113.565
86.1108
59.9488
37.7307
21.5687
12.7844
11.7755
18.0076
30.124
46.1479
63.7484
80.5309
94.3174
103.382
106.618
103.623
94.6957
80.7486
63.1606
43.5811
23.7187
5.13828
-10.9081
-23.5994
-32.6016
-38.0578
-40.5207
-40.8376
-40.0071
-39.0284
-38.7613
-39.8161
-42.4839
-46.7155
-52.1462
-58.1614
-63.9911
-68.819
-71.8912
-72.6104
-70.6048
-65.765
-58.2458
-48.4368
-36.9076
-24.3351
-11.4266
1.15485
12.8507
23.249
32.1037
39.3317
44.9908
49.2432
52.3118
54.435
55.8275
56.6503
56.9948
56.8801
56.2642
55.0654
53.19
50.5613
47.1469
42.977
38.1544
32.8522
27.3013
21.7679
16.5269
11.8316
7.88721
4.8297
2.71311
1.50713
1.10451
1.33694
1.99718
2.86421
3.72828
4.41273
4.79023
4.79195
4.40905
3.68693
2.71368
1.60448
0.484298
-0.528856
-1.33818
-1.87826
-2.12043
-2.07298
-1.77679
-1.29743
-0.714806
-0.11225
0.433905
0.86277
1.13464
1.23354
1.16664
0.960801
0.657185
0.304559
-0.0475904
-0.35536
-0.585463
-0.718562
-0.75075
-0.693238
-0.570505
-0.417278
-0.274776
-0.186668
-0.195172
-0.337679
-0.64418
-1.1357
-1.82383
-2.71123
-3.79314
-5.05944
-6.49707
-8.09245
-9.83359
-11.7116
-13.7212
-15.8609
-18.1315
-20.5346
-23.0702
-25.7338
-28.5146
-31.3943
-34.3488
-37.3536
-40.3969
-43.5003
-46.7516
-50.3486
-54.6515
-60.2389
-67.9555
-78.9373
-94.5972
-116.554
-146.491
-185.946
-236.032
-297.123
-368.549
-448.339
-533.087
-617.986
-697.057
-763.588
-810.754
-832.345
-823.525
-781.513
-706.078
-599.781
-467.891
-317.996
-159.32
-1.84106
144.691
271.71
372.652
443.539
483.248
493.468
478.335
443.82
396.945
344.94
294.434
250.786
217.618
196.594
187.457
188.289
195.952
206.634
216.428
221.867
220.344
210.392
191.784
165.471
133.37
98.0512
62.3644
29.0665
0.48913
-21.7118
-36.703
-44.5058
-45.9228
-42.3752
-35.68
-27.8011
-20.6058
-15.6565
-14.0607
-16.3894
-22.6693
-32.4393
-44.8589
-58.8497
-73.2475
-86.9463
-99.0175
-108.792
-115.901
-120.272
-122.096
-121.755
-119.752
-116.62
-112.856
-108.856
-104.887
-101.066
-97.3765
-93.6924
-89.8152
-85.5184
-80.588
-74.8564
-68.2261
-60.68
-52.2811
-43.1613
-33.5045
-23.5261
-13.4519
-3.50008
6.13313
15.2835
23.8236
31.6645
38.7536
45.071
50.6242
55.4426
59.5709
63.0635
65.9783
68.371
70.2907
71.7751
72.8482
73.5186
73.7799
73.6121
72.985
71.8618
70.2035
67.9729
65.139
61.6796
57.585
52.8594
47.5236
41.6162
35.195
28.3387
21.1472
13.7429
6.26986
-1.10746
-8.20792
-14.8396
-20.8085
-25.9295
-30.0394
-33.0113
-34.7678
-35.2928
-34.6405
-32.9391
-30.3889
-27.2548
-23.8514
-20.5237
-17.6221
-15.476
-14.3668
-14.5023
-15.997
-18.8579
-22.9797
-28.1492
-34.059
-40.3307
-46.5442
-52.2724
-57.1158
-60.7346
-62.8757
-63.3904
-62.2422
-59.5039
-55.344
-50.0049
-43.7744
-36.9537
-29.8264
-22.6301
-15.5354
-8.63448
-1.93893
4.61068
11.1272
17.7524
24.6302
31.8801
39.5757
47.7295
56.2871
65.1295
74.084
82.9414
91.4764
99.4697
106.728
113.103
118.499
122.884
126.285
128.786
130.514
131.623
132.283
132.659
132.895
133.107
133.369
133.71
134.118
134.54
134.888
135.052
134.904
134.305
133.11
131.17
128.331
124.439
119.337
112.876
104.928
95.3979
84.2484
71.5197
57.3492
41.9831
25.7791
9.19602
-7.23041
-22.9226
-37.3049
-49.8516
-60.131
-67.843
-72.8433
-75.151
-74.9404
-72.5168
-68.2811
-62.6875
-56.2011
-49.2593
-42.2423
-35.4548
-29.1187
-23.3764
-18.3013
-13.9136
-10.1966
-7.11207
-4.61207
-2.64643
-1.16611
-0.122881
0.533452
0.858667
0.917187
0.782769
0.534967
0.249276
-0.0211205
-0.27358
-0.594556
-1.20677
-2.52039
-5.18019
-10.0975
-18.4533
-31.6574
-51.2524
-78.7539
-115.43
-162.033
-218.512
-283.754
-355.388
-429.728
-501.872
-565.999
-615.841
-645.309
-649.181
-623.78
-567.547
-481.405
-368.863
-235.823
-90.1138
59.2255
202.796
331.749
438.627
518.055
567.183
585.858
576.494
543.682
493.584
433.201
369.6
309.18
257.082
216.771
189.852
176.103
173.721
179.725
190.454
202.106
211.233
215.143
212.174
201.804
184.608
162.079
136.345
109.832
84.9054
63.5661
47.2018
36.4471
31.1507
30.4486
32.928
36.8524
40.4164
41.9932
40.3437
34.7614
25.139
11.9514
-3.83581
-20.9169
-37.8319
-53.1607
-65.7014
-74.6089
-79.4805
-80.3794
-77.7996
-72.5787
-65.7751
-58.5267
-51.9094
-46.8146
-43.8571
-43.3231
-45.1617
-49.015
-54.283
-60.2092
-65.9772
-70.8045
-74.0242
-75.1454
-73.8891
-70.197
-64.2179
-56.2733
-46.8104
-36.349
-25.4272
-14.5539
-4.17055
5.37538
13.8428
21.098
27.1043
31.9049
35.6013
38.3298
40.2407
41.4804
42.179
42.4431
42.3535
41.9674
41.3229
40.446
39.3566
38.075
36.6264
35.0437
33.3682
31.6488
29.9393
28.2945
26.766
25.3972
24.2189
23.2456
22.473
21.8768
21.4141
21.0255
20.6402
20.1816
19.5751
18.7547
17.6704
16.2935
14.6195
12.6692
10.4857
8.12944
5.6704
3.17963
0.720064
-1.66138
-3.93972
-6.11487
-8.21135
-10.2748
-12.3661
-14.5536
-16.9055
-19.483
-22.3349
-25.4947
-28.9783
-32.7841
-36.892
-41.2632
-45.8392
-50.5408
-55.2669
-59.8956
-64.2864
-68.2859
-71.7368
-74.4886
-76.4119
-77.4114
-77.4383
-76.4992
-74.6594
-72.0407
-68.8127
-65.1779
-61.3532
-57.5478
-53.9406
-50.6585
-47.7575
-45.2085
-42.8884
-40.5796
-37.9782
-34.7122
-30.371
-24.5443
-16.8693
-7.08204
4.93391
19.1059
35.1468
52.5488
70.6025
88.4387
105.091
119.57
130.949
138.432
141.414
139.508
132.541
120.506
103.486
81.5525
54.65
22.5071
-15.4167
-59.9119
-111.911
-172.287
-241.56
-319.562
-405.094
-495.663
-587.364
-674.962
-752.22
-812.439
-849.182
-857.069
-832.535
-774.433
-684.376
-566.758
-428.43
-278.07
-125.32
20.1882
149.812
256.734
336.57
387.681
411.147
410.448
390.879
358.811
320.875
283.196
250.748
226.907
213.239
209.533
214.044
223.903
235.632
245.684
250.935
249.083
238.905
220.344
194.448
163.166
129.045
94.8759
63.3353
36.6684
16.4503
3.44806
-2.40676
-1.94252
3.41336
11.8525
21.4282
30.2907
36.8858
40.0962
39.3155
34.4516
25.8698
14.2886
0.64881
-14.0251
-28.7522
-42.6973
-55.2389
-65.9992
-74.8391
-81.8237
-87.1677
-91.1712
-94.1554
-96.4068
-98.1366
-99.4577
-100.38
-100.825
-100.646
-99.6647
-97.7059
-94.6272
-90.346
-84.8548
-78.2259
-70.6056
-62.1994
-53.2503
-44.0144
-34.7363
-25.627
-16.8479
-8.50186
-0.631075
6.77725
13.78
20.4635
26.9273
33.2684
39.5684
45.8838
52.2402
58.6306
65.0164
71.3305
77.4817
83.3591
88.8371
93.7806
98.0501
101.508
104.026
105.491
105.811
104.922
102.791
99.4179
94.8341
89.1044
82.3257
74.6277
66.1735
57.1598
47.8163
38.4007
29.1908
20.4723
12.5213
5.58577
-0.13486
-4.50713
-7.47712
-9.07699
-9.42371
-8.7093
-7.18369
-5.13175
-2.84722
-0.606416
1.35531
2.86191
3.80791
4.16166
3.9608
3.30063
2.31749
1.16896
0.0137194
-1.00694
-1.7837
-2.24875
-2.3794
-2.19606
-1.75528
-1.13907
-0.442298
0.240106
0.824546
1.24721
1.46866
1.47413
1.26971
0.875221
0.315058
-0.391371
-1.23801
-2.2379
-3.42533
-4.85412
-6.59225
-8.71385
-11.2896
-14.3772
-18.0128
-22.2047
-26.93
-32.1341
-37.7332
-43.6194
-49.6674
-55.7419
-61.7057
-67.4261
-72.78
-77.6558
-81.9541
-85.5841
-88.4589
-90.4898
-91.581
-91.6278
-90.5217
-88.1648
-84.498
-79.5424
-73.4546
-66.5923
-59.5798
-53.364
-49.2448
-48.8625
-54.1284
-67.0857
-89.6977
-123.571
-169.636
-227.818
-296.755
-373.609
-454.025
-532.294
-601.716
-655.153
-685.746
-687.678
-656.925
-591.862
-493.645
-366.3
-216.498
-53.012
114.062
274.254
417.712
536.123
623.462
676.478
694.874
681.171
640.277
578.844
504.472
424.883
347.143
277.029
218.592
173.96
143.37
125.419
117.469
116.152
117.904
119.453
118.21
112.531
101.813
86.445
67.6371
47.1472
26.9681
9.01283
-5.15848
-14.5382
-18.7779
-18.1975
-13.7058
-6.65095
1.37241
8.73101
13.9485
15.8658
13.7514
7.35221
-3.11369
-17.0164
-33.4139
-51.1773
-69.1245
-86.1481
-101.322
-113.982
-123.766
-130.622
-134.779
-136.696
-136.981
-136.307
-135.329
-134.602
-134.525
-135.297
-136.905
-139.135
-141.604
-143.81
-145.195
-145.21
-143.376
-139.336
-132.888
-124.007
-112.841
-99.6872
-84.9595
-69.1395
-52.7258
-36.1846
-19.9102
-4.19703
10.7705
24.9136
38.2395
50.8122
62.7185
74.0334
84.7926
94.9729
104.486
113.182
120.871
127.34
132.39
135.861
137.661
137.777
136.29
133.368
129.25
124.228
118.614
112.711
106.781
101.019
95.5327
90.3314
85.3304
80.3626
75.2031
69.6025
63.3248
56.1846
48.0809
39.0197
29.1248
18.6324
7.87222
-2.76508
-12.8679
-22.0473
-29.9785
-36.4334
-41.3024
-44.6007
-46.46
-47.1071
-46.8312
-45.9465
-44.7536
-43.505
-42.3793
-41.4665
-40.7652
-40.1926
-39.603
-38.8142
-37.6359
-35.8968
-33.467
-30.2731
-26.3032
-21.6029
-16.2622
-10.3977
-4.13127
2.42826
9.19885
16.1305
23.2015
30.4059
37.7349
45.1555
52.59
59.9007
66.8842
73.2746
78.7593
83.0038
85.6845
86.5251
85.332
82.0256
76.6609
69.4365
60.688
50.8675
40.5091
30.1847
20.4547
11.8185
4.67121
-0.729519
-4.28195
-6.0427
-6.21301
-5.11091
-3.13283
-0.70946
1.73888
3.84246
5.31357
5.96656
5.72521
4.61814
2.76433
0.351723
-2.38759
-5.20242
-7.84544
-10.0925
-11.758
-12.7071
-12.8645
-12.2211
-10.8375
-8.8438
-6.43464
-3.85766
-1.39595
0.655674
2.01816
2.45689
1.80771
-0.00314818
-2.94826
-6.8992
-11.6381
-16.8796
-22.2996
-27.5695
-32.3888
-36.5148
-39.784
-42.1245
-43.5573
-44.1866
-44.1822
-43.7549
-43.1291
-42.515
-42.0856
-41.9579
-42.1829
-42.7437
-43.5607
-44.5036
-45.4078
-46.0914
-46.3725
-46.0835
-45.0815
-43.2548
-40.5261
-36.8533
-32.2281
-26.6759
-20.2542
-13.0527
-5.19273
3.17486
11.8729
20.7046
29.462
37.9374
45.935
53.2819
59.8374
65.4981
70.2005
73.918
76.6562
78.4456
79.3332
79.3753
78.631
77.1592
75.0165
72.2584
68.9414
65.1263
60.8806
56.2807
51.4122
46.3679
41.2457
36.1434
31.1536
26.3579
21.8206
17.581
13.6437
9.96404
6.42721
2.8196
-1.20759
-6.17891
-12.8327
-22.1454
-35.3292
-53.7847
-78.9972
-112.366
-154.97
-207.288
-268.905
-338.26
-412.483
-487.391
-557.664
-617.232
-659.833
-679.698
-672.273
-634.867
-567.149
-471.384
-352.39
-217.179
-74.3434
66.7633
196.936
308.017
393.676
449.973
475.657
472.159
443.303
394.774
333.422
266.481
200.816
142.256
95.1096
61.8846
43.2391
38.1414
44.2042
58.1379
76.2558
94.9686
111.208
122.739
128.328
127.77
121.778
111.769
99.5787
87.1549
76.2666
68.2672
63.9368
63.4157
66.2301
71.3963
77.5822
83.3006
87.1048
87.7627
84.3886
76.5223
64.1515
47.6815
27.8628
5.68921
-17.7166
-41.2182
-63.7661
-84.4787
-102.694
-117.998
-130.217
-139.402
-145.783
-149.722
-151.657
-152.054
-151.358
-149.962
-148.178
-146.233
-144.261
-142.313
-140.374
-138.378
-136.229
-133.818
-131.042
-127.81
-124.055
-119.733
-114.826
-109.337
-103.291
-96.7276
-89.7011
-82.2818
-74.5548
-66.6208
-58.5965
-50.6128
-42.8114
-35.3395
-28.3417
-21.9511
-16.2804
-11.4125
-7.39483
-4.23453
-1.89849
-0.31598
0.615145
1.01982
1.03542
0.800781
0.445714
0.0819232
-0.203786
-0.353454
-0.338791
-0.158941
0.164412
0.593932
1.08459
1.59168
2.07794
2.51873
2.90487
3.24259
3.55092
3.8569
4.18963
4.57399
5.02532
5.54574
6.12267
6.72984
7.33025
7.88072
8.3371
8.65933
8.81563
8.78514
8.55889
8.13903
7.53661
6.76846
5.85381
4.81123
3.65661
2.40238
1.05825
-0.36674
-1.86129
-3.40855
-4.98325
-6.54975
-8.0617
-9.46341
-10.6932
-11.6881
-12.3898
-12.7508
-12.7404
-12.3484
-11.589
-10.5001
-9.14209
-7.59346
-5.94466
-4.29089
-2.72422
-1.32607
-0.160754
0.729165
1.32542
1.63409
1.68343
1.51961
1.20118
0.792873
0.359507
-0.0392213
-0.352652
-0.54156
-0.579129
-0.450834
-0.153662
0.304898
0.907806
1.62925
2.43536
3.28512
4.13176
4.92498
5.61411
6.15197
6.49927
6.62889
6.5292
6.20614
5.68329
4.99997
4.20757
3.3648
2.53254
1.7695
1.12921
0.659068
0.40114
0.394372
0.677247
1.28989
2.27466
3.67476
5.53048
7.87364
10.7209
14.0669
17.8784
22.0909
26.6078
31.3048
36.0369
40.6506
44.9971
48.9468
52.4002
55.2924
57.5871
59.2576
60.2518
60.4418
59.5629
57.147
52.4638
44.4844
31.8859
13.1139
-13.4823
-49.4364
-95.8841
-153.238
-220.865
-296.82
-377.703
-458.693
-533.8
-596.326
-639.52
-657.338
-645.224
-600.785
-524.274
-418.775
-290.072
-146.176
3.4067
148.613
279.826
388.83
469.607
518.869
536.279
524.343
487.996
433.943
369.846
303.458
241.806
190.52
153.364
132.016
126.106
133.477
150.626
173.259
196.882
217.358
231.358
236.68
232.393
218.818
197.353
170.199
139.997
109.467
81.0612
56.6914
37.5516
24.0449
15.817
11.8803
10.8033
10.9357
10.6375
8.48261
3.41581
-5.15262
-17.318
-32.7149
-50.6024
-69.9837
-89.7425
-108.778
-126.119
-141.017
-152.987
-161.833
-167.614
-170.609
-171.243
-170.017
-167.441
-163.978
-159.995
-155.749
-151.38
-146.926
-142.344
-137.54
-132.403
-126.828
-120.74
-114.107
-106.944
-99.3152
-91.3276
-83.1202
-74.8533
-66.6953
-58.8106
-51.3471
-44.4263
-38.1352
-32.5215
-27.5923
-23.3171
-19.634
-16.4593
-13.6985
-11.2582
-9.05578
-7.02655
-5.12718
-3.33503
-1.64389
-0.0572401
1.41954
2.78635
4.05372
5.24516
6.3964
7.55159
8.75738
10.0559
11.4782
13.0385
14.7313
16.5303
18.3897
20.2477
22.0308
23.658
25.0455
26.1099
26.7718
26.9584
26.606
25.6636
24.0962
21.889
19.0512
15.6205
11.6657
7.28855
2.62347
-2.16563
-6.89099
-11.3497
-15.3352
-18.6502
-21.1214
-22.6127
-23.0374
-22.3663
-20.6313
-17.9242
-14.3896
-10.2129
-5.60522
-0.786516
4.03165
8.66091
12.9476
16.7796
20.0887
22.8483
25.0672
26.7818
28.0468
28.9267
29.4885
29.7968
29.9103
29.8811
29.7545
29.5702
29.3623
29.1601
28.987
28.8589
28.7822
28.7513
28.7462
28.7323
28.6594
28.4647
28.0763
27.4196
26.4252
25.038
23.2261
20.9888
18.3615
15.4173
12.2641
9.03671
5.8855
2.96142
0.39995
-1.69454
-3.26183
-4.29442
-4.84015
-4.99829
-4.90929
-4.73906
-4.65995
-4.83052
-5.37669
-6.37672
-7.85192
-9.76403
-12.0199
-14.4824
-16.9867
-19.3591
-21.4372
-23.0871
-24.2184
-24.7918
-24.8222
-24.3739
-23.5507
-22.4822
-21.3071
-20.1568
-19.1413
-18.3388
-17.7903
-17.5001
-17.4405
-17.5621
-17.8047
-18.1098
-18.4313
-18.7423
-19.0378
-19.3333
-19.6575
-20.0427
-20.5135
-21.0749
-21.7036
-22.3426
-22.9012
-23.2603
-23.2823
-22.8257
-21.7603
-19.9838
-17.435
-14.1034
-10.0329
-5.31902
-0.0990829
5.46378
11.2009
16.9603
22.6266
28.136
33.4829
38.7153
43.9199
49.1971
54.6298
60.2497
66.0082
71.7563
77.2389
82.1056
85.9405
88.3053
88.7935
87.0864
83.0039
76.5416
67.8888
57.4231
45.6813
33.3109
21.0057
9.43591
-0.820414
-9.33573
-15.8757
-20.4229
-23.1826
-24.5738
-25.2117
-25.8882
-27.5545
-31.308
-38.3791
-50.1095
-67.9092
-93.1767
-127.17
-170.823
-224.512
-287.794
-359.164
-435.862
-513.81
-587.713
-651.356
-698.098
-721.534
-716.235
-678.486
-606.91
-502.869
-370.577
-216.884
-50.7376
117.61
277.579
419.283
534.482
617.355
664.994
677.569
658.157
612.264
547.11
470.77
391.285
315.839
250.111
197.851
160.714
138.357
128.761
128.706
134.343
141.77
147.543
149.063
144.812
134.412
118.522
98.6164
76.6712
54.8159
35.0052
18.7478
6.92387
-0.291934
-3.40219
-3.46753
-1.92065
-0.344941
-0.250735
-2.87923
-9.05775
-19.121
-32.9024
-49.7914
-68.842
-88.9153
-108.834
-127.529
-144.157
-158.179
-169.394
-177.926
-184.165
-188.68
-192.121
-195.107
-198.133
-201.505
-205.289
-209.317
-213.209
-216.43
-218.366
-218.412
-216.047
-210.905
-202.822
-191.852
-178.263
-162.503
-145.155
-126.874
-108.331
-90.1535
-72.8879
-56.9644
-42.6835
-30.2134
-19.5974
-10.7701
-3.57813
2.19584
6.80904
10.5345
13.639
16.3642
18.9105
21.4271
24.005
26.6766
29.4196
32.1652
34.8099
37.2291
39.2915
40.8742
41.8744
42.2206
41.8784
40.8545
39.1962
36.9874
34.3422
31.3968
28.2992
25.1995
22.2397
19.5449
17.2157
15.3232
13.9062
12.9705
12.4913
12.4175
12.6773
13.1857
13.851
14.5816
15.291
15.9017
16.346
16.5665
16.5142
16.1462
15.4236
14.3096
12.7692
10.7697
8.28221
5.28464
1.76429
-2.27864
-6.82784
-11.8478
-17.2811
-23.0473
-29.0424
-35.1406
-41.1981
-47.0588
-52.561
-57.546
-61.8647
-65.3853
-67.9979
-69.6171
-70.1836
-69.6645
-68.0559
-65.3883
-61.74
-57.2601
-52.2036
-46.9777
-42.1979
-38.7425
-37.7958
-40.861
-49.722
-66.3379
-92.6547
-130.336
-180.426
-242.988
-316.763
-398.93
-485.026
-569.091
-644.045
-702.313
-736.601
-740.769
-710.651
-644.715
-544.457
-414.452
-262.047
-96.7164
70.8377
229.736
369.989
483.455
564.574
610.8
622.692
603.673
559.486
497.451
425.597
351.786
282.937
224.407
179.615
149.911
134.69
131.718
137.607
148.368
159.979
168.88
172.369
168.835
157.842
140.05
117.014
90.8931
64.1083
39.013
17.5976
1.27248
-9.25648
-14.0131
-13.6833
-9.47391
-2.92166
4.31719
10.6694
14.815
15.8077
13.1376
6.73363
-3.08459
-15.6947
-30.2827
-45.9599
-61.8708
-77.2802
-91.6312
-104.571
-115.949
-125.787
-134.236
-141.52
-147.886
-153.559
-158.705
-163.416
-167.703
-171.507
-174.721
-177.206
-178.824
-179.451
-178.999
-177.415
-174.682
-170.813
-165.837
-159.787
-152.691
-144.572
-135.442
-125.322
-114.249
-102.297
-89.5943
-76.3357
-62.7877
-49.2828
-36.2029
-23.9528
-12.9255
-3.4654
4.16709
9.82462
13.4905
15.2833
15.4464
14.3245
12.3291
9.89785
7.45175
5.35603
3.88878
3.22071
3.40776
4.39664
6.04198
8.13218
10.4203
12.6562
14.6157
16.1236
17.0693
17.4124
17.1802
16.4565
15.3658
14.0543
12.6696
11.3432
10.1767
9.23251
8.53122
8.05386
7.74931
7.54541
7.36193
7.12374
6.77206
6.27218
5.61628
4.82132
3.92227
2.96232
1.98223
1.01093
0.0594136
-0.880636
-1.83357
-2.83292
-3.91378
-5.10846
-6.44995
-7.98761
-9.81746
-12.1268
-15.2489
-19.7198
-26.3242
-36.1162
-50.398
-70.6422
-98.3483
-134.833
-180.964
-236.868
-301.652
-373.186
-448.011
-521.413
-587.692
-640.624
-674.077
-682.717
-662.709
-612.313
-532.274
-425.952
-299.145
-159.613
-16.3648
121.227
244.357
345.665
419.942
464.593
479.796
468.35
435.239
386.971
330.791
273.843
222.411
181.298
153.423
139.675
139.003
148.737
165.075
183.659
200.181
210.926
213.191
205.557
187.973
161.66
128.871
92.5466
55.9
22.0157
-6.51139
-27.8468
-41.0728
-46.2225
-44.1974
-36.5893
-25.4367
-12.9514
-1.24936
7.88069
13.1488
13.8605
9.93417
1.84652
-9.48227
-22.8425
-36.9069
-50.3982
-62.2333
-71.6291
-78.1617
-81.777
-82.7556
-81.6415
-79.1466
-76.0452
-73.0707
-70.8292
-69.7362
-69.9832
-71.5351
-74.155
-77.4512
-80.9379
-84.1014
-86.4621
-87.6256
-87.3185
-85.4057
-81.8895
-76.8948
-70.6435
-63.4229
-55.5541
-47.3636
-39.1599
-31.218
-23.7695
-16.9982
-11.04
-5.9845
-1.87727
1.27765
3.51569
4.90968
5.56715
5.62624
5.24965
4.61626
3.91069
3.31146
2.9788
3.04337
3.59735
4.68874
6.31956
8.44776
10.9922
13.8399
16.8539
19.8813
22.7603
25.3274
27.4234
28.9003
29.6293
29.5094
28.4772
26.5154
23.6596
20.0023
15.6905
10.9189
5.91703
0.93182
-3.79224
-8.03364
-11.6122
-14.4034
-16.3464
-17.4456
-17.7657
-17.4205
-16.5581
-15.3438
-13.9426
-12.5038
-11.1484
-9.96149
-8.98817
-8.23499
-7.67488
-7.25517
-6.90751
-6.55825
-6.13826
-5.59118
-4.87926
-3.9865
-2.91885
-1.70179
-0.375562
1.01101
2.4077
3.76985
5.06469
6.27592
7.40628
8.47755
9.52799
10.6075
11.771
13.071
14.5502
16.2356
18.134
20.2309
22.4918
24.8663
27.294
29.7106
32.0547
34.271
36.3126
38.1386
39.7103
40.9853
41.9113
42.4224
42.4382
41.8681
40.6204
38.6153
35.8008
32.1685
27.7674
22.7126
17.187
11.4354
5.75046
0.451278
-4.14268
-7.74084
-10.1103
-11.1011
-10.6656
-8.86875
-5.88822
-2.00331
2.42655
6.9921
11.2702
14.8616
17.4265
18.7136
18.5801
16.9996
14.059
9.9432
4.91158
-0.73146
-6.66804
-12.5967
-18.2577
-23.4506
-28.0445
-31.9789
-35.2575
-37.9364
-40.1085
-41.8864
-43.3865
-44.7154
-45.9599
-47.1815
-48.4144
-49.6678
-50.9307
-52.1786
-53.3808
-54.5065
-55.5303
-56.4337
-57.2046
-57.8332
-58.3055
-58.5968
-58.6651
-58.448
-57.8633
-56.8148
-55.2021
-52.9347
-49.9466
-46.211
-41.7509
-36.6445
-31.0237
-25.0655
-18.9757
-12.9673
-7.2357
-1.93189
2.86123
7.14751
11.0272
14.6942
18.4179
22.508
27.2605
32.8879
39.4346
46.6884
54.095
60.6913
65.073
65.4141
59.5527
45.1555
19.9624
-17.8987
-69.5505
-135.002
-212.831
-299.987
-391.756
-481.946
-563.301
-628.126
-669.056
-679.899
-656.418
-596.967
-502.858
-378.426
-230.735
-68.9784
96.3692
254.556
395.582
511.132
595.32
645.148
660.643
644.679
602.504
541.052
468.124
391.539
318.356
254.241
203.041
166.61
144.861
136.041
137.162
144.532
154.305
162.985
167.823
167.08
160.124
147.368
130.082
110.11
89.5387
70.3652
54.2152
42.135
34.4841
30.9316
30.5474
31.9691
33.6133
33.9012
31.4658
25.3169
14.9438
0.350012
-17.9784
-39.1616
-62.0548
-85.3969
-107.96
-128.679
-146.754
-161.705
-173.389
-181.973
-187.878
-191.693
-194.085
-195.707
-197.123
-198.745
-200.801
-203.328
-206.188
-209.1
-211.688
-213.535
-214.231
-213.415
-210.809
-206.238
-199.634
-191.033
-180.563
-168.427
-154.883
-140.224
-124.76
-108.802
-92.6446
-76.5631
-60.7998
-45.5629
-31.0248
-17.3229
-4.56237
7.17945
17.8487
27.4107
35.8466
43.1509
49.3316
54.4101
58.4237
61.4267
63.4924
64.7123
65.1952
65.0634
64.4488
63.487
62.3135
61.0583
59.8436
58.7801
57.9662
57.4852
57.4037
57.7693
58.6074
59.9185
61.6751
63.8201
66.2652
68.8927
71.5583
74.0965
76.3283
78.0702
79.1451
79.393
78.6811
76.9136
74.0397
70.0591
65.0254
59.0471
52.2845
44.9433
37.2643
29.5082
21.9382
14.7995
8.2986
2.5856
-2.26018
-6.23696
-9.41932
-11.9482
-14.0126
-15.8258
-17.5977
-19.5076
-21.6822
-24.1783
-26.9767
-29.9839
-33.0438
-35.9552
-38.4946
-40.4407
-41.597
-41.8123
-40.9948
-39.1213
-36.2389
-32.4612
-27.9587
-22.9446
-17.6583
-12.3469
-7.24651
-2.56577
1.52777
4.9167
7.53714
9.37608
10.4633
10.8588
10.6388
9.88151
8.65691
7.02095
5.01623
2.67813
0.0444151
-2.83518
-5.89421
-9.05476
-12.2475
-15.4489
-18.7364
-22.3562
-26.7952
-32.8427
-41.6258
-54.597
-73.4589
-100.011
-135.919
-182.418
-239.974
-307.954
-384.356
-465.664
-546.881
-621.778
-683.353
-724.492
-738.737
-721.091
-668.732
-581.535
-462.321
-316.768
-152.995
19.153
189.023
346.178
481.387
587.476
659.932
697.204
700.682
674.358
624.244
557.619
482.198
405.333
333.323
270.911
220.994
184.575
160.926
147.927
142.524
141.236
140.656
137.88
130.817
118.374
100.49
78.0354
52.6131
26.2821
1.25278
-20.4087
-37.0327
-47.5294
-51.4869
-49.1819
-41.5095
-29.8484
-15.8827
-1.40595
11.8705
22.4837
29.3437
31.8091
29.7089
23.3154
13.2742
0.504195
-13.9201
-28.8902
-43.3755
-56.5167
-67.6915
-76.5492
-83.0144
-87.2614
-89.6655
-90.7377
-91.0512
-91.1673
-91.5683
-92.6043
-94.4576
-97.1274
-100.436
-104.055
-107.544
-110.409
-112.151
-112.33
-110.606
-106.778
-100.804
-92.8052
-83.05
-71.9288
-59.9138
-47.5125
-35.2198
-23.4722
-12.6105
-2.85365
5.7134
13.1363
19.5744
25.2716
30.5194
35.617
40.8322
46.3687
52.3431
58.7738
65.5822
72.6062
79.6227
86.3759
92.6086
98.0908
102.643
106.153
108.579
109.952
110.357
109.923
108.794
107.115
105.003
102.54
99.7555
96.6312
93.1022
89.0716
84.4294
79.0742
72.9366
65.9986
58.3084
49.9866
41.2242
32.2706
23.414
14.956
7.18383
0.342881
-5.38612
-9.90317
-13.196
-15.3375
-16.4737
-16.8041
-16.5574
-15.9649
-15.2355
-14.535
-13.9724
-13.5942
-13.3871
-13.2879
-13.2002
-13.0126
-12.6194
-11.9376
-10.92
-9.56261
-7.90443
-6.02167
-4.01642
-2.00199
-0.0873821
1.63694
3.10983
4.30532
5.23276
5.93148
6.46105
6.88868
7.27601
7.66742
8.08172
8.50846
8.9094
9.2246
9.382
9.30871
8.94222
8.23977
7.1851
5.79203
4.10531
2.19907
0.173177
-1.85313
-3.75158
-5.40168
-6.71663
-7.6808
-8.39947
-9.15861
-10.4886
-13.2212
-18.5254
-27.9034
-43.1318
-66.1297
-98.7513
-142.504
-198.216
-265.691
-343.397
-428.273
-515.683
-599.593
-672.977
-728.426
-758.921
-758.652
-723.795
-653.119
-548.329
-414.081
-257.666
-88.3708
83.3825
247.036
392.895
513.026
601.929
656.939
678.308
668.983
634.116
580.379
515.186
445.884
379.039
319.862
271.838
236.579
213.895
202.065
198.246
198.972
200.667
200.127
194.89
183.491
165.556
141.756
113.623
83.2849
53.1342
25.5
2.34994
-14.936
-25.6999
-30.0391
-28.7424
-23.1452
-14.9296
-5.8987
2.24579
8.09308
10.6614
9.47094
4.54857
-3.63043
-14.2509
-26.2985
-38.7125
-50.5288
-60.9973
-69.6589
-76.3759
-81.3157
-84.8941
-87.6882
-90.3351
-93.4289
-97.433
-102.616
-109.021
-116.463
-124.566
-132.812
-140.61
-147.37
-152.563
-155.772
-156.722
-155.285
-151.475
-145.422
-137.342
-127.508
-116.224
-103.808
-90.5878
-76.8926
-63.0611
-49.4398
-36.3791
-24.2204
-13.2763
-3.80209
4.03266
10.1709
14.6847
17.7778
19.7718
21.0745
22.1359
23.3942
25.2218
27.8763
31.4649
35.9272
41.0381
46.432
51.6455
56.1721
59.523
61.2865
61.1774
59.0716
55.0202
49.2444
42.1087
34.0806
25.6783
17.4162
9.75384
3.05432
-2.44311
-6.63379
-9.54206
-11.3011
-12.1221
-12.258
-11.9662
-11.476
-10.9637
-10.5384
-10.2387
-10.0396
-9.86707
-9.61798
-9.1808
-8.45486
-7.36522
-5.87169
-3.97163
-1.697
0.892701
3.71998
6.69917
9.74495
12.7782
15.7288
18.5354
21.1432
23.5
25.5533
27.2482
28.527
29.3323
29.6105
29.3184
28.4287
26.9349
24.8552
22.2322
19.1317
15.638
11.8484
7.86664
3.79747
-0.258054
-4.20524
-7.95676
-11.4321
-14.5558
-17.2562
-19.4637
-21.1121
-22.1424
-22.5123
-22.2118
-21.2878
-19.8768
-18.2451
-16.8327
-16.2952
-17.5329
-21.6965
-30.1557
-44.4188
-65.9944
-96.1954
-135.893
-185.245
-243.436
-308.475
-377.102
-444.859
-506.335
-555.601
-586.796
-594.799
-575.897
-528.362
-452.829
-352.425
-232.6
-100.678
34.8224
165.023
281.566
377.434
447.602
489.466
502.977
490.501
456.426
406.564
347.452
285.62
226.92
175.99
135.905
108.029
92.0897
86.4228
88.3612
94.6989
102.17
107.88
109.65
106.223
97.3368
83.6568
66.5907
48.0233
30.0102
14.474
2.94317
-3.63717
-5.0029
-1.57245
5.64021
15.1825
25.3643
34.4735
40.9776
43.6881
41.8688
35.2826
24.1748
9.20289
-8.67463
-28.3311
-48.6099
-68.4494
-86.983
-103.603
-117.986
-130.084
-140.077
-148.311
-155.22
-161.249
-166.779
-172.084
-177.292
-182.378
-187.183
-191.439
-194.818
-196.978
-197.616
-196.506
-193.527
-188.683
-182.094
-173.985
-164.661
-154.468
-143.765
-132.886
-122.114
-111.665
-101.68
-92.2206
-83.2857
-74.823
-66.7508
-58.979
-51.43
-44.0552
-36.8468
-29.8429
-23.1253
-16.8117
-11.0409
-5.9559
-1.68512
1.67546
4.07628
5.5231
6.07959
5.86323
5.03513
3.78516
2.31417
0.815535
-0.541813
-1.62702
-2.3561
-2.69533
-2.65891
-2.30192
-1.70932
-0.982865
-0.227358
0.462055
1.01039
1.37017
1.52534
1.49152
1.31316
1.05793
0.809075
0.656438
0.686783
0.974252
1.57162
2.50312
3.75949
5.29602
7.0337
8.86401
10.6567
12.2703
13.5642
14.4113
14.7097
14.3925
13.4344
11.8545
9.71453
7.11374
4.1806
1.06247
-2.08503
-5.10815
-7.86351
-10.2246
-12.0865
-13.368
-14.0136
-13.9938
-13.3045
-11.9674
-10.0281
-7.55548
-4.63889
-1.38506
2.08637
5.64835
9.17275
12.5369
15.6297
18.3575
20.6475
22.4503
23.7399
24.5128
24.7849
24.5881
23.9665
22.9731
21.6665
20.1095
18.3682
16.511
14.6087
12.7343
10.9613
9.36215
8.00613
6.95647
6.26844
5.98804
6.15153
6.78503
7.90241
9.49892
11.537
13.9216
16.4629
18.8272
20.4819
20.6422
18.2351
11.8973
0.02454
-19.1113
-47.1719
-85.4911
-134.766
-194.735
-263.898
-339.333
-416.678
-490.301
-553.692
-600.047
-622.984
-617.309
-579.733
-509.414
-408.263
-280.939
-134.514
22.1312
179.149
326.672
455.759
559.234
632.306
672.912
681.758
662.058
619.032
559.223
489.733
417.467
348.475
287.45
237.435
199.741
174.075
158.833
151.502
149.123
148.733
147.756
144.279
137.209
126.294
112.037
95.5044
78.0928
61.2712
46.3464
34.2765
25.5541
20.168
17.6392
17.1196
17.5338
17.74
16.6869
13.5457
7.80323
-0.695051
-11.7504
-24.8614
-39.3089
-54.2607
-68.8815
-82.434
-94.3585
-104.324
-112.244
-118.269
-122.736
-126.114
-128.93
-131.696
-134.842
-138.67
-143.323
-148.772
-154.838
-161.213
-167.509
-173.301
-178.174
-181.765
-183.789
-184.06
-182.489
-179.075
-173.889
-167.047
-158.689
-148.955
-137.975
-125.859
-112.709
-98.6225
-83.7144
-68.1316
-52.0687
-35.7767
-19.5622
-3.77814
11.1958
24.9791
37.2208
47.6293
55.9985
62.2258
66.3206
68.4012
68.6807
67.4449
65.0228
61.756
57.9675
53.9365
49.8788
45.9356
42.1713
38.58
35.0982
31.6227
28.0318
24.2058
20.0464
15.4927
10.5318
5.20541
-0.390362
-6.10934
-11.7648
-17.1423
-22.0161
-26.1655
-29.3927
-31.5384
-32.4949
-32.2153
-30.718
-28.0859
-24.4607
-20.0322
-15.0237
-9.67625
-4.2306
1.08867
6.08733
10.612
14.5562
17.862
20.5167
22.5461
24.0046
24.9635
25.4995
25.6838
25.5731
25.2043
24.5907
23.7225
22.569
21.0824
19.204
16.8698
14.0174
10.5927
6.55632
1.89087
-3.3928
-9.24873
-15.5893
-22.2793
-29.1308
-35.9022
-42.3012
-47.9967
-52.6413
-55.9062
-57.5311
-57.3858
-55.5425
-52.3505
-48.5031
-45.0852
-43.5836
-45.8466
-53.9773
-70.1536
-96.3761
-134.157
-184.18
-245.971
-317.638
-395.737
-475.302
-550.102
-613.096
-657.084
-675.474
-663.088
-616.88
-536.481
-424.462
-286.281
-129.884
34.9828
197.687
347.734
475.781
574.514
639.294
668.503
663.554
628.585
569.878
495.093
412.407
329.664
253.624
189.407
140.153
106.94
88.9409
83.7752
87.9998
97.6688
108.885
118.282
123.375
122.77
116.194
104.384
88.8583
71.5969
54.707
40.0984
29.2193
22.8799
21.1774
23.5252
28.7708
35.3819
41.6693
46.0145
47.0744
43.9357
36.2059
24.0325
8.05371
-10.7078
-30.9911
-51.4623
-70.8771
-88.2194
-102.802
-114.318
-122.839
-128.769
-132.754
-135.573
-138.015
-140.766
-144.313
-148.888
-154.434
-160.625
-166.912
-172.594
-176.914
-179.152
-178.715
-175.208
-168.48
-158.638
-146.04
-131.25
-114.983
-98.0342
-81.2022
-65.2216
-50.7045
-38.0987
-27.6659
-19.4788
-13.4366
-9.29546
-6.70814
-5.26986
-4.56337
-4.19982
-3.85128
-3.27282
-2.31283
-0.912032
0.90753
3.06118
5.42501
7.86108
10.2411
12.4661
14.4804
16.2776
17.8995
19.4273
20.9684
22.6381
24.5417
26.7567
29.32
32.2184
35.3872
38.7127
42.0423
45.1975
47.9903
50.2404
51.7909
52.5225
52.3629
51.2913
49.3389
46.5833
43.1395
39.1477
34.7594
30.1234
25.373
20.6163
15.9288
11.3511
6.88966
2.52211
-1.79515
-6.11655
-10.4962
-14.9768
-19.5794
-24.2963
-29.0864
-33.8744
-38.5545
-42.9968
-47.0578
-50.5917
-53.463
-55.5579
-56.7931
-57.1213
-56.5333
-55.056
-52.7476
-49.6908
-45.9856
-41.7418
-37.0737
-32.0957
-26.9202
-21.657
-16.4128
-11.292
-6.3953
-1.81831
2.35218
6.04291
9.19949
11.7916
13.8166
15.3008
16.2979
16.8831
17.1457
17.1785
17.0678
16.8832
16.6709
16.4499
16.212
15.9266
15.5474
15.022
14.3017
13.3487
12.1404
10.6666
8.91798
6.86353
4.41568
1.38417
-2.57752
-8.02592
-15.7703
-26.8901
-42.7114
-64.7261
-94.4458
-133.185
-181.788
-240.321
-307.781
-381.864
-458.86
-533.726
-600.359
-652.083
-682.308
-685.282
-656.854
-595.122
-500.878
-377.761
-232.086
-72.3481
91.5426
249.206
390.804
507.995
594.715
647.697
666.674
654.247
615.454
557.095
486.909
412.703
341.536
279.057
229.046
193.22
171.29
161.246
159.822
163.071
166.956
167.907
163.259
151.526
132.511
107.223
77.6497
46.4177
16.3958
-9.70499
-29.6808
-42.0947
-46.4204
-43.0626
-33.2613
-18.9014
-2.25938
14.2765
28.4786
38.5113
43.0994
41.6186
34.1049
21.1892
3.97115
-16.1468
-37.6425
-59.0503
-79.1115
-96.8824
-111.794
-123.659
-132.635
-139.147
-143.794
-147.244
-150.136
-152.995
-156.182
-159.863
-164.011
-168.43
-172.802
-176.738
-179.834
-181.725
-182.121
-180.835
-177.792
-173.025
-166.657
-158.879
-149.918
-140.013
-129.395
-118.265
-106.796
-95.1312
-83.394
-71.7011
-60.1763
-48.9619
-38.2241
-28.1518
-18.948
-10.814
-3.93003
1.56586
5.5968
8.16103
9.33833
9.28761
8.23571
6.4584
4.25606
1.92681
-0.259606
-2.08417
-3.39467
-4.11391
-4.23957
-3.83605
-3.01993
-1.94103
-0.761611
0.363757
1.30531
1.97059
2.31124
2.32386
2.04548
1.54479
0.910727
0.240246
-0.373167
-0.848783
-1.12496
-1.16222
-0.943476
-0.471883
0.232446
1.13615
2.19595
3.36122
4.57618
5.78192
6.91919
7.93228
8.77399
9.41141
9.83142
10.0448
10.0881
10.0217
9.92517
9.88845
10.0015
10.3426
10.9675
11.9006
13.1303
14.6082
16.2529
17.9589
19.6073
21.079
22.2675
23.0906
23.4982
23.477
23.0514
22.2791
21.2454
20.0534
18.814
17.6354
16.613
15.8199
15.2983
15.0529
15.0458
15.195
15.3758
15.4284
15.1699
14.4106
12.9744
10.72
7.56069
3.48009
-1.45821
-7.10895
-13.2518
-19.6062
-25.8525
-31.6582
-36.7059
-40.7203
-43.4919
-44.8942
-44.8941
-43.5527
-41.0179
-37.5089
-33.2949
-28.6691
-23.9217
-19.3147
-15.0601
-11.3052
-8.12468
-5.52191
-3.43694
-1.76129
-0.356591
0.925323
2.22346
3.65223
5.29117
7.18044
9.322
11.6851
14.2141
16.8377
19.4753
22.0417
24.4483
26.6013
28.3986
29.7275
30.4652
30.4828
29.6556
27.8774
25.0783
21.2445
16.4356
10.797
4.56437
-1.9421
-8.33636
-14.1975
-19.1135
-22.7355
-24.8409
-25.4009
-24.6479
-23.1361
-21.7848
-21.8951
-25.1259
-33.4164
-48.8451
-73.4205
-108.809
-156.015
-215.058
-284.675
-362.126
-443.141
-522.07
-592.238
-646.514
-678.028
-680.963
-651.33
-587.591
-491.055
-365.964
-219.246
-59.9399
101.636
254.876
389.928
498.647
575.357
617.328
624.925
601.412
552.467
485.45
408.545
329.864
256.633
194.525
147.233
116.297
101.183
99.603
107.994
122.105
137.603
150.626
158.213
158.585
151.236
136.86
117.122
94.3279
71.0435
49.7128
32.3287
20.1944
13.7972
12.8018
16.1524
22.2617
29.253
35.2193
38.4648
37.6997
32.1671
21.6946
6.67022
-12.0466
-33.2608
-55.6037
-77.7005
-98.3216
-116.503
-131.626
-143.447
-152.086
-157.97
-161.752
-164.201
-166.102
-168.15
-170.87
-174.563
-179.277
-184.815
-190.772
-196.588
-201.622
-205.224
-206.814
-205.937
-202.313
-195.854
-186.67
-175.048
-161.418
-146.307
-130.283
-113.909
-97.694
-82.0583
-67.3121
-53.6472
-41.1442
-29.7898
-19.5032
-10.1665
-1.6541
6.14067
13.2872
19.8073
25.6742
30.8203
35.1507
38.5617
40.9599
42.2797
42.4979
41.642
39.793
37.0821
33.6809
29.7894
25.6194
21.3791
17.2581
13.4149
9.96827
6.99335
4.52165
2.54555
1.02595
-0.097699
-0.896354
-1.44068
-1.79178
-1.99436
-2.073
-2.03176
-1.85691
-1.52228
-0.996376
-0.250016
0.736429
1.96743
3.42901
5.08832
6.89598
8.79079
10.706
12.5759
14.3419
15.9567
17.3857
18.6061
19.6039
20.3685
20.8878
21.1444
21.1133
20.7638
20.0631
18.9834
17.5094
15.6459
13.4235
10.9012
8.16513
5.32329
2.49678
-0.191174
-2.62716
-4.71872
-6.40322
-7.65312
-8.47701
-8.91627
-9.03794
-8.92475
-8.66371
-8.33499
-8.00221
-7.70575
-7.45947
-7.25134
-7.04771
-6.80033
-6.45525
-5.96211
-5.28266
-4.39717
-3.30796
-2.03956
-0.635722
0.846018
2.34105
3.7842
5.11472
6.27893
7.2302
7.92667
8.32782
8.3911
8.07006
7.31507
6.07711
4.31463
2.00252
-0.857943
-4.23006
-8.03529
-12.1508
-16.4123
-20.6215
-24.5595
-28.0028
-30.7435
-32.611
-33.4962
-33.3775
-32.3498
-30.6566
-28.7222
-27.1841
-26.9174
-29.0468
-34.933
-46.1256
-64.2677
-90.9479
-127.495
-174.725
-232.667
-300.293
-375.315
-454.093
-531.695
-602.155
-658.914
-695.429
-705.867
-685.828
-632.967
-547.443
-432.115
-292.441
-136.09
27.72
189.053
338.185
466.514
567.339
636.433
672.34
676.375
652.333
605.959
544.242
474.63
404.252
339.235
284.192
241.919
213.32
197.547
192.329
194.416
200.09
205.682
208.008
204.718
194.495
177.113
153.361
124.85
93.7345
62.4084
33.1896
8.04904
-11.5953
-25.0002
-32.1282
-33.5938
-30.5383
-24.4549
-16.9904
-9.74669
-4.10606
-1.09861
-1.32211
-4.91936
-11.6102
-20.7696
-31.5376
-42.9472
-54.0513
-64.0348
-72.3007
-78.5207
-82.6488
-84.8992
-85.6945
-85.594
-85.2114
-85.1333
-85.8481
-87.6917
-90.815
-95.1737
-100.539
-106.524
-112.626
-118.27
-122.864
-125.842
-126.715
-125.111
-120.81
-113.763
-104.11
-92.1763
-78.454
-63.5728
-48.252
-33.2431
-19.2654
-6.93969
3.27011
11.1028
16.5246
19.7301
21.117
21.2373
20.7318
20.2535
20.3927
21.6108
24.1918
28.2177
33.5692
39.9514
46.9387
54.035
60.7374
66.5981
71.2741
74.56
76.4001
76.8785
76.1909
74.602
72.3969
69.8323
67.0976
64.289
61.4016
58.341
54.9487
51.0403
46.4477
41.0585
34.8472
27.8929
20.3802
12.585
4.84585
-2.47339
-9.02514
-14.5172
-18.7445
-21.609
-23.126
-23.4165
-22.6867
-21.1984
-19.2351
-17.0671
-14.9213
-12.9588
-11.2613
-9.82988
-8.59253
-7.42041
-6.14963
-4.60565
-2.62743
-0.0887828
3.08455
6.90339
11.3096
16.1765
21.3152
26.4862
31.4155
35.8152
39.4054
41.9383
43.2194
43.126
41.6201
38.7537
34.6655
29.5704
23.7408
17.4836
11.1143
4.93196
-0.80302
-5.88492
-10.1721
-13.5887
-16.1197
-17.8005
-18.7028
-18.9201
-18.5533
-17.6997
-16.4461
-14.8648
-13.015
-10.9454
-8.69879
-6.31652
-3.8413
-1.31808
1.20739
3.69192
6.09916
8.40382
10.5944
12.6739
14.6575
16.5672
18.4253
20.2455
22.0247
23.7363
25.326
26.7108
27.7812
28.4072
28.4463
27.7545
26.1977
23.6646
20.0797
15.4146
9.69771
3.02057
-4.46089
-12.53
-20.919
-29.3238
-37.4228
-44.8986
-51.4592
-56.8581
-60.9102
-63.5018
-64.5951
-64.2259
-62.4961
-59.5616
-55.617
-50.8806
-45.5776
-39.9274
-34.131
-28.3636
-22.7686
-17.4547
-12.4966
-7.93559
-3.78366
-0.0271635
3.36789
6.45031
9.27777
11.9109
14.4072
16.8159
19.1729
21.4973
23.7888
26.0271
28.173
30.1713
31.9552
33.4523
34.5911
35.3081
35.5544
35.3008
34.5421
33.2979
31.6119
29.5475
27.1814
24.5953
21.8662
19.0573
16.2099
13.3387
10.43
7.44487
4.32646
1.01097
-2.55863
-6.41812
-10.5687
-14.9671
-19.5201
-24.0858
-28.4814
-32.4967
-35.913
-38.5245
-40.1597
-40.1597
-40.1597
-40.1597
-40.1597
-40.1597
-40.1597
-40.1597
-40.1597
-40.1597
-40.1597
-40.1597
-40.1597
-40.1597
-40.1597
-40.1597
-40.1597
-40.1597
-40.1597
-40.1597
