32.3042
13.3627
-7.02688
-27.9357
-48.2806
-66.9259
-82.7987
-95.0041
-102.922
-106.277
-105.166
-100.043
-91.67
-81.0259
-69.2007
-57.2791
-46.2324
-36.8289
-29.5736
-24.681
-22.0834
-21.4693
-22.346
-24.1168
-26.162
-27.9146
-28.9218
-28.8871
-27.6892
-25.3787
-22.1549
-18.3274
-14.2681
-10.3614
-6.95708
-4.33187
-2.66263
-2.01349
-2.33634
-3.48384
-5.23181
-7.30822
-9.4248
-11.3081
-12.7267
-13.5123
-13.5727
-12.8964
-11.5484
-9.65837
-7.40317
-4.98526
-2.61018
-0.465133
1.29891
2.58002
3.33183
3.56362
3.33444
2.74225
1.9098
0.969095
0.0462099
-0.751717
-1.34613
-1.69247
-1.78124
-1.63483
-1.30114
-0.84481
-0.33756
0.151307
0.563001
0.855189
1.00528
1.01092
0.888012
0.66665
0.385813
0.0875201
-0.188728
-0.410598
-0.556157
-0.615475
-0.590538
-0.493692
-0.34493
-0.16844
0.0112163
0.172978
0.30309
0.398833
0.472348
0.554903
0.70203
0.999867
1.57258
2.58986
4.27241
6.89225
10.7641
16.225
23.6002
33.1555
45.0418
59.2348
75.4818
93.2646
111.788
129.999
146.652
160.397
169.909
174.027
171.891
163.064
147.613
126.14
99.7549
69.9886
38.6601
7.70632
-21.0004
-45.8282
-65.5334
-79.363
-87.1022
-89.0626
-86.0157
-79.0818
-69.5892
-58.9225
-48.377
-39.0358
-31.6818
-26.7509
-24.3284
-24.1842
-25.8397
-28.6546
-31.9218
-34.9583
-37.1826
-38.1697
-37.6798
-35.6606
-32.2244
-27.6068
-22.113
-16.0608
-9.72845
-3.31387
3.08934
9.49738
16.0236
22.8511
30.195
38.2615
47.209
57.1173
67.9676
79.6365
91.9041
104.472
116.994
129.105
140.458
150.749
159.746
167.3
173.345
177.9
181.05
182.929
183.693
183.5
182.481
180.722
178.249
175.014
170.898
165.718
159.247
151.243
141.484
129.811
116.168
100.627
83.4169
64.9175
45.6494
26.238
7.36545
-10.2877
-26.1036
-39.584
-50.3958
-58.3997
-63.6583
-66.4232
-67.1028
-66.2145
-64.328
-62.0061
-59.7509
-57.9594
-56.8958
-56.6801
-57.2937
-58.5999
-60.3732
-62.3342
-64.1828
-65.6273
-66.4054
-66.298
-65.1362
-62.8038
-59.2376
-54.4279
-48.4196
-41.3127
-33.2634
-24.4812
-15.2224
-5.77824
3.54181
12.4314
20.6102
27.8458
33.9729
38.9058
42.6438
45.2683
46.9323
47.8437
48.2441
48.385
48.5047
48.8056
49.4359
50.4761
51.9318
53.7339
55.7463
57.7804
59.6158
61.0239
61.7933
61.7528
60.7903
58.8651
56.0124
52.3397
48.0153
43.2511
38.2814
33.3397
28.6367
24.3419
20.569
17.3685
14.7269
12.5726
10.7874
9.22388
7.72472
6.14338
4.36319
2.31301
-0.0226386
-2.59987
-5.31894
-8.03453
-10.5719
-12.747
-14.3886
-15.3595
-15.5755
-15.0183
-13.7429
-11.8771
-9.61317
-7.1933
-4.88872
-2.97579
-1.71074
-1.30581
-1.90931
-3.5916
-6.33825
-10.0509
-14.5556
-19.6175
-24.9601
-30.288
-35.3101
-39.7619
-43.4248
-46.1406
-47.82
-48.4445
-48.0605
-46.7674
-44.6998
-42.0053
-38.8192
-35.2385
-31.2971
-26.9448
-22.0349
-16.3232
-9.48299
-1.13826
9.08557
21.4957
36.2572
53.3192
72.3521
92.7095
113.424
133.247
150.728
164.346
172.655
174.453
168.941
155.846
135.499
108.847
77.3929
43.0747
8.08737
-25.3263
-55.0917
-79.5
-97.3626
-108.106
-111.797
-109.094
-101.146
-89.433
-75.5945
-61.2445
-47.8115
-36.4116
-27.7693
-22.19
-19.5828
-19.5254
-21.3591
-24.2996
-27.5486
-30.3929
-32.2799
-32.864
-32.0204
-29.829
-26.5339
-22.4849
-18.0721
-13.661
-9.53616
-5.86129
-2.65768
0.196008
2.94455
5.92076
9.49898
14.0439
19.8605
27.1523
35.9909
46.3016
57.866
70.3395
83.2836
96.2069
108.611
120.035
130.095
138.512
145.132
149.925
152.975
154.461
154.626
153.743
152.081
149.872
147.289
144.426
141.29
137.807
133.828
129.147
123.528
116.726
108.522
98.7475
87.3172
74.2486
59.6796
43.874
27.2145
10.1832
-6.67046
-22.7718
-37.5679
-50.5761
-61.4259
-69.8916
-75.91
-79.5814
-81.1546
-80.9972
-79.5549
-77.3062
-74.7153
-72.1921
-70.0595
-68.534
-67.7184
-67.6077
-68.1057
-69.0484
-70.2324
-71.4438
-72.4841
-73.191
-73.4521
-73.211
-72.4655
-71.259
-69.6672
-67.7823
-65.6953
-63.4816
-61.1892
-58.8326
-56.3912
-53.8153
-51.0351
-47.9745
-44.5656
-40.764
-36.5603
-31.9888
-27.1301
-22.1083
-17.0817
-12.23
-7.73698
-3.77248
-0.474937
2.06329
3.80615
4.77864
5.06558
4.80488
4.17616
3.38599
2.65164
2.18438
2.17408
2.77581
4.09936
6.20205
9.08533
12.6951
16.9257
21.6282
26.6208
31.7024
36.6668
41.3173
45.4795
49.0115
51.8112
53.8193
55.0189
55.4323
55.1143
54.1453
52.6228
50.6531
48.3448
45.8021
43.121
40.3857
37.6674
35.0236
32.4977
30.1199
27.907
25.8632
23.9802
22.2376
20.6039
19.0376
17.4902
15.9086
14.2396
12.4345
10.454
8.27205
5.87993
3.28775
0.524589
-2.36351
-5.31737
-8.26987
-11.1519
-13.8982
-16.453
-18.7741
-20.8357
-22.6296
-24.1644
-25.4636
-26.5617
-27.4993
-28.3182
-29.0553
-29.7382
-30.3808
-30.9814
-31.5215
-31.9676
-32.273
-32.3815
-32.2293
-31.7459
-30.8507
-29.4456
-27.4028
-24.5506
-20.6602
-15.4387
-8.53485
0.43659
11.8477
25.9877
42.9764
62.6715
84.5879
107.847
131.177
152.97
171.413
184.661
191.06
189.363
178.929
159.858
133.042
100.123
63.3556
25.3854
-11.0209
-43.2661
-69.1942
-87.308
-96.9076
-98.1335
-91.9123
-79.8151
-63.8496
-46.2148
-29.0488
-14.2004
-3.05114
3.59607
5.55278
3.20651
-2.58104
-10.622
-19.5752
-28.1205
-35.1141
-39.7076
-41.4195
-40.1549
-36.1764
-30.033
-22.4604
-14.2681
-6.22751
1.02491
7.05743
11.6811
14.9527
17.1466
18.7002
20.1441
22.0253
24.8339
28.9426
34.5641
41.7307
50.2961
59.9578
70.2962
80.8239
91.0389
100.477
108.754
115.6
120.872
124.56
126.771
127.703
127.617
126.794
125.502
123.967
122.343
120.705
119.039
117.25
115.174
112.596
109.279
104.992
99.5366
92.7795
84.6763
75.2888
64.7921
53.4695
41.6942
29.8999
18.5422
8.05609
-1.18537
-8.90641
-14.9533
-19.3055
-22.072
-23.4742
-23.8173
-23.4541
-22.7463
-22.0276
-21.5728
-21.5756
-22.1381
-23.2699
-24.8985
-26.8868
-29.056
-31.2098
-33.1581
-34.7368
-35.8223
-36.3403
-36.2671
-35.6261
-34.4801
-32.9194
-31.0497
-28.9803
-26.8131
-24.6348
-22.5121
-20.4896
-18.5909
-16.8212
-15.1722
-13.6265
-12.163
-10.7608
-9.40339
-8.08009
-6.7879
-5.53146
-4.32236
-3.17772
-2.11826
-1.16604
-0.342117
0.335741
0.855034
1.21005
1.40278
1.44321
1.34888
1.14387
0.857163
0.520622
0.166726
-0.173792
-0.474112
-0.713135
-0.876752
-0.958437
-0.959154
-0.886556
-0.753603
-0.576725
-0.373778
-0.162044
0.0434737
0.231238
0.393742
0.52746
0.63228
0.710624
0.766422
0.804143
0.82797
0.841188
0.845762
0.842078
0.828824
0.803
0.760107
0.694583
0.600542
0.472842
0.308432
0.10782
-0.123537
-0.374201
-0.626315
-0.855941
-1.03423
-1.12936
-1.10902
-0.943115
-0.606377
-0.0805698
0.643979
1.56759
2.68118
3.96686
5.39899
6.9455
8.56943
10.2304
11.8864
13.4948
15.0149
16.4086
17.6427
18.6904
19.5323
20.1581
20.5666
20.7662
20.7745
20.6163
20.3226
19.9267
19.462
18.9574
18.4344
17.9036
17.3624
16.7944
16.1698
15.4483
14.5828
13.525
12.2311
10.6678
8.81652
6.67711
4.26831
1.62666
-1.19711
-4.14319
-7.14872
-10.1535
-13.1046
-15.9587
-18.6816
-21.245
-23.6195
-25.7658
-27.6223
-29.0906
-30.0194
-30.1879
-29.2937
-26.9479
-22.6862
-15.999
-6.38748
6.5583
23.0631
43.0664
66.1347
91.4065
117.588
143.011
165.753
183.819
195.352
198.864
193.428
178.837
155.671
125.283
89.6897
51.3864
13.1
-22.4815
-52.9754
-76.5333
-92.007
-99.0328
-98.0288
-90.1066
-76.9141
-60.4292
-42.731
-25.7768
-11.2089
-0.211178
6.57116
9.04498
7.61987
3.10671
-3.41937
-10.7725
-17.8065
-23.5453
-27.2791
-28.619
-27.5068
-24.1845
-19.1295
-12.9682
-6.38077
-0.0081708
5.62514
10.1665
13.4628
15.5603
16.6795
17.1703
17.4559
17.9729
19.1159
21.1934
24.3977
28.7933
34.3213
40.818
48.0449
55.7229
63.5687
71.3245
78.7815
85.7906
92.2621
98.1545
103.455
108.155
112.228
115.609
118.185
119.798
120.255
119.352
116.901
112.764
106.88
99.2857
90.1289
79.6676
68.2576
56.3297
44.3576
32.8211
22.1666
12.7709
4.90939
-1.26533
-5.73452
-8.611
-10.1243
-10.5943
-10.3965
-9.92241
-9.53963
-9.55589
-10.1914
-11.5621
-13.6752
-16.4375
-19.6745
-23.1572
-26.6338
-29.8611
-32.632
-34.7961
-36.2719
-37.0484
-37.1782
-36.7632
-35.936
-34.8397
-33.6088
-32.3546
-31.1552
-30.0524
-29.0537
-28.1391
-27.27
-26.3996
-25.4819
-24.4786
-23.3629
-22.1205
-20.7487
-19.2531
-17.6449
-15.9373
-14.1446
-12.2811
-10.3616
-8.40314
-6.42569
-4.45359
-2.51586
-0.646131
1.11781
2.73479
4.16112
5.35166
6.2612
6.84635
7.06809
6.89498
6.30699
5.29956
3.88748
2.10814
0.0234131
-2.28018
-4.69361
-7.09
-9.33185
-11.2805
-12.8073
-13.8051
-14.1997
-13.9582
-13.0946
-11.6712
-9.79402
-7.60452
-5.26657
-2.95101
-0.819171
0.992451
2.38468
3.30365
3.74348
3.7434
3.37981
2.75465
1.98155
1.17176
0.421739
-0.196278
-0.639504
-0.895486
-0.978887
-0.925065
-0.781702
-0.599864
-0.4258
-0.294537
-0.225904
-0.223207
-0.274325
-0.354665
-0.431207
-0.46681
-0.424099
-0.268423
0.0302838
0.496655
1.14974
2.00308
3.06464
4.33617
5.81208
7.47784
9.30858
11.2684
13.3109
15.3817
17.4226
19.3768
21.1952
22.8408
24.2918
25.5415
26.5942
27.4591
28.1411
28.6318
28.9022
28.898
28.5399
27.7296
26.3593
24.327
21.5523
17.993
13.6594
8.62393
3.02436
-2.93946
-9.01658
-14.9224
-20.361
-25.0504
-28.7478
-31.272
-32.521
-32.4813
-31.2296
-28.9253
-25.7943
-22.1069
-18.1502
-14.1979
-10.4797
-7.15093
-4.26536
-1.7526
0.596685
3.1334
6.33596
10.7748
17.0532
25.724
37.1894
51.5922
68.7167
87.9155
108.085
127.702
144.932
157.803
164.435
163.286
153.392
134.555
107.443
73.5948
35.3039
-4.5966
-43.0239
-76.9747
-103.85
-121.734
-129.592
-127.368
-115.961
-97.1055
-73.1569
-46.8173
-20.8385
2.26707
20.4732
32.4193
37.5064
35.9043
28.4749
16.626
2.11568
-13.1648
-27.4068
-39.0724
-47.0364
-50.6714
-49.8687
-44.9999
-36.8285
-26.3852
-14.8244
-3.28134
7.25577
16.0441
22.6466
26.9518
29.1531
29.696
29.2001
28.3686
27.8967
28.3884
30.2918
33.8569
39.1206
45.9163
53.9062
62.6301
71.5638
80.1793
88.0007
94.6481
99.8677
103.544
105.693
106.448
106.025
104.686
102.704
100.331
97.7633
95.1339
92.4981
89.8385
87.0742
84.0775
80.6936
76.763
72.1439
66.7321
60.4774
53.393
45.5592
37.1186
28.2655
19.2301
10.2601
1.60133
-6.51975
-13.9102
-20.4209
-25.9522
-30.4549
-33.9282
-36.4143
-37.9911
-38.7643
-38.858
-38.4067
-37.5464
-36.4072
-35.1061
-33.7411
-32.3864
-31.0891
-29.8676
-28.7126
-27.5892
-26.4421
-25.2016
-23.7913
-22.1358
-20.169
-17.841
-15.1243
-12.0175
-8.5476
-4.76928
-0.761961
3.37549
7.53189
11.5918
15.444
18.9888
22.144
24.8488
27.0645
28.7738
29.9772
30.6885
30.9305
30.7311
30.1218
29.1378
27.8213
26.225
24.4171
22.4834
20.527
18.6635
17.0112
15.6774
14.7425
14.2445
14.1662
14.4298
14.8985
15.3884
15.6888
15.5884
14.9058
13.5177
11.3821
8.55212
5.17708
1.49103
-2.21137
-5.60823
-8.389
-10.293
-11.1427
-10.8673
-9.51315
-7.23981
-4.30219
-1.0209
2.2551
5.18886
7.49366
8.96448
9.49882
9.10473
7.89535
6.0711
3.89199
1.64364
-0.398615
-2.00326
-3.0098
-3.34639
-3.0362
-2.19185
-0.999077
0.30838
1.47921
2.27672
2.50876
2.05187
0.866706
-0.996893
-3.40578
-6.15926
-9.0127
-11.7058
-13.9918
-15.6645
-16.5796
-16.6676
-15.9386
-14.4775
-12.4314
-9.99047
-7.36617
-4.76767
-2.38065
-0.349956
1.2319
2.32955
2.96261
3.19717
3.13226
2.88306
2.56323
2.26865
2.06459
1.97797
1.99544
2.06727
2.11626
2.05016
1.77578
1.21288
0.305887
-0.967702
-2.59344
-4.52057
-6.66704
-8.92786
-11.1859
-13.3233
-15.233
-16.8278
-18.0477
-18.8634
-19.2761
-19.3144
-19.0263
-18.468
-17.6888
-16.7108
-15.5064
-13.973
-11.9101
-9.00349
-4.82525
1.14297
9.45791
20.632
35.0264
52.7324
73.4633
96.4789
120.565
144.087
165.112
181.609
191.68
193.813
187.106
171.428
147.497
116.848
81.6999
44.7302
8.79197
-23.3961
-49.5423
-68.0216
-78.0315
-79.648
-73.7757
-62.005
-46.3958
-29.218
-12.6848
1.29126
11.2893
16.4994
16.7609
12.5208
4.72448
-5.34372
-16.2456
-26.5752
-35.1236
-41.0034
-43.723
-43.2042
-39.7485
-33.9592
-26.6341
-18.6441
-10.8149
-3.82535
1.86604
6.05852
8.81047
10.4067
11.2995
12.0334
13.1653
15.19
18.4816
23.2565
29.56
37.277
46.161
55.8771
66.0485
76.3028
86.3093
95.8045
104.604
112.601
119.758
126.083
131.615
136.4
140.475
143.863
146.561
148.553
149.803
150.272
149.921
148.714
146.619
143.607
139.645
134.695
128.712
121.649
113.47
104.166
93.7733
82.396
70.2188
57.5121
44.6247
31.9639
19.9625
9.03912
-0.445418
-8.22713
-14.169
-18.2765
-20.6968
-21.7005
-21.6496
-20.9541
-20.0262
-19.2339
-18.864
-19.0954
-19.9874
-21.4828
-23.4247
-25.5835
-27.6912
-29.477
-30.7015
-31.184
-30.8213
-29.5958
-27.5733
-24.8912
-21.7389
-18.3345
-14.8994
-11.6348
-8.70283
-6.21347
-4.21848
-2.71269
-1.6415
-0.913286
-0.415185
-0.0302208
0.345943
0.790469
1.3426
1.99797
2.70882
3.39016
3.93155
4.21299
4.12312
3.57744
2.53393
1.00392
-0.943495
-3.18445
-5.55055
-7.84527
-9.86467
-11.4197
-12.3577
-12.5799
-12.0531
-10.8148
-8.96991
-6.68095
-4.15229
-1.61093
0.714217
2.61227
3.9076
4.47331
4.24026
3.20187
1.41497
-1.00278
-3.87863
-6.99363
-10.0951
-12.9125
-15.1772
-16.6452
-17.1207
-16.4796
-14.6889
-11.8193
-8.0485
-3.65274
1.01302
5.54601
9.53435
12.5999
14.4401
14.8642
13.8186
11.3989
7.84438
3.51798
-1.12979
-5.60704
-9.43273
-12.1886
-13.5645
-13.3927
-11.6654
-8.535
-4.29707
0.64289
5.81341
10.7274
14.933
18.0594
19.8531
20.2011
19.1387
16.8426
13.6085
9.8181
5.89822
2.27594
-0.664143
-2.61701
-3.38449
-2.89035
-1.1819
1.58138
5.15055
9.21807
13.4531
17.537
21.1946
24.218
26.4801
27.937
28.619
28.614
28.0435
27.0387
25.7173
24.1665
22.434
20.5275
18.4216
16.0716
13.4304
10.4651
7.17137
3.58234
-0.228926
-4.15336
-8.05564
-11.7879
-15.2052
-18.1803
-20.6154
-22.4503
-23.6639
-24.2705
-24.3098
-23.8322
-22.8784
-21.458
-19.5259
-16.9617
-13.5554
-9.00278
-2.91712
5.13978
15.6033
28.8298
45.0042
64.0431
85.5104
108.564
131.955
154.088
173.146
187.277
194.812
194.487
185.64
168.345
143.457
112.559
77.8219
41.7736
7.03217
-23.9789
-49.2873
-67.5691
-78.2616
-81.5812
-78.4483
-70.3314
-59.0379
-46.478
-34.4361
-24.3751
-17.2981
-13.6778
-13.4586
-16.1238
-20.8134
-26.4743
-32.0185
-36.471
-39.0871
-39.4291
-37.3952
-33.2015
-27.3244
-20.4145
-13.1946
-6.35703
-0.472804
4.07645
7.13741
8.79148
9.33027
9.20499
8.95804
9.14626
10.2665
12.693
16.6337
22.111
28.9676
36.8964
45.4884
54.2918
62.8725
70.8692
78.033
84.2489
89.5355
94.0261
97.9333
101.504
104.974
108.523
112.244
116.12
120.028
123.742
126.963
129.348
130.55
130.256
128.215
124.271
118.375
110.594
101.107
90.1966
78.2278
65.6273
52.8549
40.3731
28.616
17.9587
8.69104
0.996751
-5.05758
-9.52329
-12.5586
-14.4064
-15.3639
-15.7465
-15.8517
-15.9268
-16.1449
-16.592
-17.2678
-18.0973
-18.9542
-19.689
-20.1611
-20.266
-19.9572
-19.2573
-18.257
-17.1031
-15.9764
-15.0636
-14.5268
-14.4764
-14.951
-15.9075
-17.2234
-18.7109
-20.1397
-21.2672
-21.8692
-21.7698
-20.863
-19.1266
-16.6253
-13.5022
-9.96216
-6.24853
-2.61577
0.697225
3.49093
5.62313
7.0195
7.67604
7.65378
7.06682
6.06567
4.81805
3.4896
2.22666
1.14288
0.310843
-0.240713
-0.524329
-0.586626
-0.497753
-0.339044
-0.19057
-0.120138
-0.17505
-0.377418
-0.723373
-1.1859
-1.72061
-2.27341
-2.78876
-3.21743
-3.5226
-3.68357
-3.69695
-3.57523
-3.34337
-3.03406
-2.68255
-2.32183
-1.97883
-1.67199
-1.41045
-1.19473
-1.01857
-0.871434
-0.741333
-0.617377
-0.491742
-0.360824
-0.2255
-0.0905698
0.0364375
0.146835
0.232432
0.287007
0.307393
0.29402
0.250906
0.18511
0.105785
0.0229826
-0.0535829
-0.11565
-0.157251
-0.175197
-0.169197
-0.141644
-0.0971435
-0.0418573
0.0172486
0.0731937
0.119755
0.152205
0.16802
0.167614
0.155125
0.139238
0.13393
0.158895
0.239359
0.404974
0.687641
1.11828
1.72285
2.51799
3.50703
4.67688
5.99644
7.41701
8.87473
10.2952
11.5996
12.7119
13.566
14.1119
14.3208
14.1874
13.7298
12.9868
12.0136
10.8757
9.64194
8.3781
7.1415
5.97686
4.914
3.96728
3.13655
2.40903
1.76198
1.16536
0.584493
-0.0177344
-0.678844
-1.43485
-2.31789
-3.35291
-4.55258
-5.90981
-7.38729
-8.90366
-10.3171
-11.4074
-11.8601
-11.256
-9.07364
-4.70797
2.48617
13.1258
27.7071
46.4969
69.421
95.9689
125.135
155.418
184.881
211.294
232.334
245.819
249.971
243.643
226.505
199.133
163.016
120.447
74.322
27.8698
-15.667
-53.3526
-82.8464
-102.625
-112.112
-111.701
-102.672
-87.0159
-67.1857
-45.8123
-25.4145
-8.14064
4.4318
11.4188
12.6652
8.69525
0.590456
-10.1853
-21.9895
-33.2072
-42.4352
-48.6256
-51.1748
-49.9522
-45.271
-37.8091
-28.4949
-18.3729
-8.46859
0.333116
7.38149
12.3182
15.0965
15.9623
15.4039
14.0787
12.7259
12.0785
12.7815
15.3257
20.0018
26.8782
35.8027
46.4256
58.2418
70.6451
82.9896
94.651
105.082
113.858
120.704
125.511
128.328
129.342
128.851
127.212
124.81
122.002
119.089
116.282
113.685
111.289
108.979
106.552
103.742
100.257
95.8147
90.1856
83.2264
74.9106
65.3445
54.7712
43.5567
32.1624
21.1043
10.9031
2.0333
-5.12535
-10.3266
-13.482
-14.6679
-14.1147
-12.1794
-9.30534
-5.9745
-2.65755
0.231367
2.37078
3.55494
3.70204
2.84782
1.12646
-1.25781
-4.06394
-7.04748
-9.98974
-12.719
-15.1215
-17.1418
-18.7723
-20.0372
-20.9711
-21.6001
-21.9271
-21.9254
-21.5429
-20.714
-19.3794
-17.5077
-15.1152
-12.28
-9.14518
-5.91163
-2.8192
-0.11986
1.9539
3.22032
3.57444
3.00493
1.59893
-0.465797
-2.94059
-5.53471
-7.94927
-9.91198
-11.2078
-11.7022
-11.3539
-10.2156
-8.42452
-6.18217
-3.72831
-1.3114
0.840226
2.54324
3.67754
4.19606
4.12571
3.55986
2.64383
1.55557
0.483974
-0.392436
-0.92432
-1.00585
-0.5835
0.341063
1.71369
3.4351
5.37172
7.3685
9.26254
10.8962
12.1287
12.8459
12.9668
12.448
11.2852
9.51251
7.20008
4.45025
1.39308
-1.81916
-5.01828
-8.0276
-10.6708
-12.7821
-14.2185
-14.8716
-14.6807
-13.6427
-11.8196
-9.33957
-6.39284
-3.21956
-0.0918217
2.70959
4.92124
6.32309
6.76156
6.16684
4.56243
2.06551
-1.12193
-4.73039
-8.44686
-11.943
-14.9045
-17.0593
-18.2003
-18.203
-17.0335
-14.7493
-11.4903
-7.46414
-2.92513
1.84906
6.58147
11.018
14.9455
18.2044
20.6954
22.3795
23.2725
23.4351
22.9605
21.9602
20.551
18.8432
16.9323
14.8937
12.7814
10.6292
8.45488
6.26617
4.06687
1.8631
-0.331775
-2.49402
-4.5886
-6.57041
-8.38759
-9.98609
-11.315
-12.3309
-13.0016
-13.3053
-13.227
-12.7501
-11.8425
-10.4403
-8.43019
-5.63382
-1.80012
3.39147
10.3115
19.3424
30.8222
44.9724
61.8187
81.1135
102.276
124.364
146.088
165.877
182.001
192.731
196.536
192.272
179.356
157.892
128.718
93.3838
54.0366
13.2385
-26.2695
-61.8291
-91.1226
-112.395
-124.618
-127.572
-121.846
-108.746
-90.1414
-68.2448
-45.3791
-23.7381
-5.17839
8.93948
17.8445
21.3785
19.9507
14.4351
6.02694
-3.92208
-14.0685
-23.2228
-30.4621
-35.1984
-37.2016
-36.5768
-33.7059
-29.1621
-23.6123
-17.7191
-12.0552
-7.03868
-2.89503
0.351569
2.86054
4.93478
6.96541
9.36956
12.5294
16.7404
22.1733
28.8559
36.6731
45.3855
54.6627
64.1256
73.3917
82.1187
90.0385
96.9803
102.88
107.773
111.78
115.075
117.86
120.327
122.63
124.865
127.057
129.15
131.021
132.487
133.325
133.298
132.175
129.754
125.881
120.467
113.495
105.026
95.1997
84.2281
72.3859
59.9964
47.4136
35.0016
23.1129
12.067
2.13092
-6.49582
-13.6922
-19.4199
-23.721
-26.7098
-28.5587
-29.4803
-29.7069
-29.4693
-28.9778
-28.4062
-27.8801
-27.4716
-27.1992
-27.0331
-26.9059
-26.7251
-26.3891
-25.801
-24.8832
-23.5869
-21.8991
-19.8444
-17.4826
-14.9019
-12.209
-9.51752
-6.93513
-4.55253
-2.43421
-0.612671
0.913346
2.17664
3.23566
4.16588
5.04955
5.96536
6.97916
8.13713
9.46189
10.9518
12.5831
14.3139
16.0894
17.8462
19.5167
21.0312
22.3197
23.3129
23.9439
24.1512
23.8843
23.1106
21.8248
20.0576
17.8833
15.4233
12.8434
10.3445
8.14488
6.45682
5.45835
5.26496
5.9053
7.30561
9.28643
11.5739
13.8253
15.6666
16.7374
16.7366
15.4636
12.8475
8.96157
4.01916
-1.64711
-7.62112
-13.4487
-18.687
-22.9515
-25.9549
-27.5332
-27.6568
-26.4257
-24.0506
-20.8224
-17.0759
-13.1506
-9.35582
-5.94209
-3.08286
-0.867672
0.693771
1.65812
2.1285
2.23166
2.09593
1.83312
1.52662
1.22688
0.953833
0.704936
0.466554
0.226016
-0.0181049
-0.249486
-0.432445
-0.515459
-0.439107
-0.147038
0.401929
1.22262
2.29514
3.56088
4.92371
6.25656
7.41269
8.24035
8.599
8.37515
7.49566
5.93705
3.72952
0.955322
-2.25832
-5.75083
-9.34302
-12.8531
-16.1123
-18.9779
-21.3435
-23.1437
-24.3553
-24.9928
-25.1015
-24.7461
-23.9986
-22.9238
-21.5644
-19.9242
-17.9509
-15.5193
-12.4174
-8.34112
-2.90211
4.34405
13.8459
25.9807
40.9614
58.7391
78.9182
100.705
122.909
143.999
162.231
175.82
183.147
182.964
174.578
157.969
133.843
103.594
69.1878
32.9741
-2.54279
-34.9528
-62.1748
-82.6517
-95.4837
-100.487
-98.1729
-89.6588
-76.5142
-60.5737
-43.7334
-27.7551
-14.1013
-3.81508
2.5445
4.90974
3.65777
-0.479277
-6.53351
-13.4338
-20.1353
-25.7312
-29.5367
-31.1368
-30.3978
-27.4442
-22.6077
-16.3578
-9.22432
-1.722
5.71303
12.769
19.2824
25.2386
30.7531
36.0354
41.3444
46.9403
53.0392
59.7783
67.1932
75.2103
83.6551
92.2727
100.758
108.795
116.086
122.393
127.556
131.508
134.279
135.985
136.806
136.966
136.698
136.216
135.69
135.22
134.829
134.455
133.957
133.122
131.686
129.357
125.846
120.893
114.306
105.985
95.9507
84.3547
71.4845
57.7483
43.6476
29.7379
16.5803
4.69084
-5.50697
-13.7205
-19.8129
-23.8108
-25.8955
-26.3776
-25.6592
-24.1883
-22.4112
-20.7278
-19.4555
-18.8041
-18.8647
-19.6128
-20.9233
-22.5956
-24.3845
-26.034
-27.3078
-28.0162
-28.0342
-27.3107
-25.8686
-23.7962
-21.2316
-18.3426
-15.3051
-12.282
-9.40539
-6.76482
-4.40105
-2.3075
-0.437716
1.28195
2.9366
4.6061
6.3499
8.19551
10.132
12.1094
14.0444
15.8305
17.3519
18.499
19.1823
19.3445
18.9676
18.0753
16.7302
15.0263
13.0784
11.0099
8.94039
6.97506
5.19675
3.66163
2.39842
1.41088
0.682697
0.183764
-0.123243
-0.276876
-0.312213
-0.257836
-0.134645
0.0435416
0.267777
0.53057
0.821798
1.12465
1.41241
1.6468
1.77843
1.74971
1.49994
0.972155
0.120952
-1.07992
-2.63113
-4.50359
-6.63731
-8.94351
-11.3102
-13.6103
-15.7127
-17.4925
-18.8432
-19.6854
-19.9741
-19.7025
-18.9018
-17.6374
-16.0021
-14.1068
-12.0695
-10.0049
-8.01367
-6.17503
-4.54122
-3.13545
-1.95309
-0.965786
-0.127755
0.616572
1.3248
2.04966
2.83387
3.70726
4.68612
5.7745
6.96637
8.24764
9.59708
10.9855
12.3731
13.7067
14.9163
15.9152
16.6028
16.8709
16.6155
15.7492
14.2164
12.0053
9.157
5.7689
1.9909
-1.98481
-5.9397
-9.64877
-12.9017
-15.5224
-17.3849
-18.422
-18.6268
-18.0451
-16.7576
-14.8553
-12.4069
-9.42425
-5.82829
-1.42462
4.10608
11.1941
20.3388
32.037
46.6869
64.4768
85.276
108.547
133.296
158.084
181.103
200.314
213.653
219.258
215.714
202.27
178.99
146.828
107.598
63.8303
18.551
-25.0199
-63.7934
-95.1303
-117.11
-128.716
-129.921
-121.652
-105.66
-84.2972
-60.2371
-36.1795
-14.5653
2.65854
14.2036
19.5189
18.7812
12.8056
2.89229
-9.36578
-22.2896
-34.3093
-44.126
-50.8251
-53.9337
-53.4198
-49.6414
-43.2562
-35.1072
-26.0997
-17.0855
-8.7676
-1.63208
4.08515
8.39892
11.5451
13.9279
16.0523
18.452
21.6214
25.96
31.7341
39.0587
47.899
58.0886
69.3588
81.3745
93.7711
106.186
118.283
129.772
140.411
150.014
158.439
165.587
171.391
175.81
178.824
180.433
180.649
179.499
177.016
173.237
168.194
161.916
154.418
145.712
135.811
124.744
112.571
99.4005
85.4018
70.8114
55.9288
41.1037
26.7127
13.1303
0.696462
-10.3129
-19.7106
-27.4119
-33.4377
-37.9053
-41.0089
-42.9932
-44.1222
-44.6499
-44.7945
-44.7203
-44.5294
-44.2616
-43.9044
-43.4086
-42.7073
-41.736
-40.4493
-38.8333
-36.9114
-34.7431
-32.4175
-30.0408
-27.7222
-25.5589
-23.6222
-21.9477
-20.5298
-19.3216
-18.2407
-17.179
-16.0166
-14.6374
-12.9441
-10.8717
-8.39635
-5.54004
-2.36974
1.00863
4.46012
7.83357
10.9754
13.7431
16.0163
17.7057
18.7574
19.1545
18.9144
18.0845
16.7356
14.9544
12.8366
10.4806
7.98264
5.43303
2.91432
0.500218
-1.7446
-3.76438
-5.51233
-6.95087
-8.0525
-8.80087
-9.1922
-9.23637
-8.95759
-8.39409
-7.59668
-6.62608
-5.549
-4.43347
-3.34375
-2.3355
-1.4519
-0.721137
-0.155698
0.246408
0.498762
0.622352
0.640755
0.575418
0.441737
0.246465
-0.0132283
-0.349064
-0.779563
-1.32697
-2.0136
-2.85795
-3.87073
-5.05082
-6.38126
-7.82519
-9.32238
-10.7866
-12.1053
-13.1417
-13.7421
-13.7469
-13.0072
-11.4045
-8.87187
-5.41375
-1.11985
3.82929
9.16772
14.5614
19.6362
24.0138
27.3517
29.3806
29.9365
28.9811
26.6083
23.0358
18.5828
13.6362
8.6101
3.90231
-0.144877
-3.27703
-5.34853
-6.33041
-6.30485
-5.4477
-4.0018
-2.24504
-0.457066
1.11091
2.26016
2.8597
2.85212
2.25041
1.128
-0.394599
-2.16265
-3.99553
-5.68766
-7.00111
-7.65157
-7.2923
-5.50342
-1.79491
4.3688
13.5177
26.0985
42.3769
62.332
85.5607
111.212
137.968
164.088
187.519
206.065
217.61
220.36
213.084
195.311
167.466
130.903
87.842
41.186
-5.74108
-49.525
-87.0115
-115.636
-133.686
-140.475
-136.382
-122.788
-101.888
-76.4195
-49.3457
-23.5273
-1.42332
15.1416
25.1233
28.3043
25.2423
17.1342
5.61865
-7.45489
-20.2598
-31.201
-39.0766
-43.1757
-43.3092
-39.7744
-33.2641
-24.7373
-15.2704
-5.90806
2.46639
9.22869
14.0686
17.0004
18.3303
18.5903
18.448
18.6067
19.7093
22.2572
26.5536
32.6762
40.4797
49.6265
59.6384
69.9617
80.0362
89.3597
97.5402
104.33
109.641
113.536
116.206
117.93
119.027
119.804
120.506
121.283
122.159
123.028
123.664
123.741
122.882
120.699
116.851
111.088
103.294
93.5192
81.983
69.0726
55.3147
41.3322
27.7907
15.3363
4.5355
-4.17838
-10.5454
-14.5012
-16.1784
-15.8878
-14.0814
-11.3015
-8.12225
-5.09071
-2.67342
-1.21505
-0.912715
-1.80816
-3.79751
-6.65635
-10.0761
-13.7065
-17.1996
-20.2486
-22.6192
-24.1691
-24.8556
-24.7303
-23.924
-22.6236
-21.0446
-19.4033
-17.8915
-16.6565
-15.7886
-15.3166
-15.2112
-15.3951
-15.758
-16.174
-16.5198
-16.6893
-16.6061
-16.2288
-15.5526
-14.6049
-13.438
-12.1188
-10.7193
-9.30783
-7.94256
-6.66836
-5.5161
-4.50422
-3.64158
-2.9304
-2.36871
-1.95162
-1.67141
-1.51684
-1.47199
-1.51549
-1.62051
-1.75584
-1.88815
-1.98505
-2.01855
-1.96841
-1.82464
-1.5889
-1.27434
-0.904008
-0.507998
-0.119681
0.228388
0.508365
0.700298
0.794202
0.790813
0.700978
0.543851
0.344176
0.129073
-0.0752407
-0.246367
-0.367922
-0.430768
-0.433175
-0.379956
-0.280766
-0.147847
0.00639236
0.171631
0.341372
0.51396
0.692775
0.885649
1.10365
1.3595
1.66586
2.03386
2.47198
2.98565
3.57745
4.24795
4.99702
5.82507
6.73394
7.72663
8.80577
9.97042
11.2117
12.5079
13.8201
15.0892
16.2363
17.1659
17.7731
17.9537
17.6158
16.6931
15.155
13.0158
10.3375
7.22863
3.83736
0.339672
-3.07572
-6.22425
-8.94215
-11.1008
-12.6173
-13.4599
-13.6479
-13.2467
-12.3573
-11.1033
-9.61489
-8.01146
-6.38323
-4.77181
-3.15037
-1.40436
0.684743
3.44847
7.32791
12.8518
20.5909
31.0877
44.7616
61.8018
82.0589
104.958
129.451
154.033
176.823
195.723
208.631
213.688
209.528
195.488
171.757
139.422
100.408
57.3242
13.2126
-28.7535
-65.5915
-94.8126
-114.668
-124.309
-123.849
-114.316
-97.5033
-75.7554
-51.6924
-27.9268
-6.79667
9.85366
20.824
25.627
24.4737
18.1849
8.04299
-4.39191
-17.4793
-29.6839
-39.7306
-46.7129
-50.148
-49.9776
-46.5185
-40.3769
-32.3377
-23.2462
-13.8968
-4.94113
3.17442
10.2388
16.2721
21.4916
26.2555
30.9929
36.1308
42.0265
48.9156
56.8787
65.8317
75.5381
85.6405
95.7067
105.283
113.947
121.356
127.28
131.622
134.419
135.826
136.086
135.494
134.352
132.93
131.431
129.973
128.574
127.161
125.586
123.646
121.115
117.77
113.422
107.933
101.235
93.3355
84.3198
74.3446
63.6247
52.416
40.9939
29.6318
18.5818
8.05883
-1.76813
-10.7787
-18.8969
-26.0828
-32.3208
-37.6084
-41.9473
-45.3384
-47.7825
-49.2854
-49.8668
-49.5713
-48.4777
-46.7058
-44.4176
-41.8118
-39.113
-36.5547
-34.3595
-32.7177
-31.7693
-31.5887
-32.1771
-33.4618
-35.3033
-37.5094
-39.8539
-42.0982
-44.0136
-45.4002
-46.102
-46.0172
-45.1009
-43.3647
-40.8697
-37.7186
-34.0448
-30.0022
-25.7548
-21.4663
-17.2918
-13.3679
-9.80514
-6.68155
-4.03797
-1.87736
-0.167797
1.15012
2.1523
2.91779
3.51519
3.99113
4.36318
4.61921
4.72379
4.63131
4.30375
3.72992
2.94219
2.02687
1.12499
0.422078
0.127146
0.443287
1.53404
3.49086
6.30726
9.86469
13.9335
18.1901
22.2493
25.707
28.1896
29.4012
29.1641
27.4453
24.3666
20.1951
15.3161
10.191
5.30577
1.11589
-2.00479
-3.80517
-4.18305
-3.19314
-1.03644
1.96721
5.41957
8.89201
11.975
14.3228
15.689
15.9482
15.1023
13.2722
10.6763
7.59872
4.35291
1.24414
-1.4642
-3.57697
-4.98383
-5.66496
-5.68602
-5.18411
-4.34704
-3.38905
-2.52603
-1.9533
-1.82801
-2.25772
-3.29556
-4.9415
-7.14866
-9.83282
-12.8835
-16.1749
-19.5747
-22.9521
-26.182
-29.1478
-31.7439
-33.8758
-35.4619
-36.4342
-36.7389
-36.3356
-35.1935
-33.2831
-30.5639
-26.9692
-22.3891
-16.6602
-9.5632
-0.838397
9.78109
22.5158
37.4713
54.5637
73.4504
93.4815
113.685
132.797
149.34
161.753
168.551
168.514
160.859
145.39
122.588
93.6192
60.2701
24.7884
-10.3338
-42.6195
-69.8721
-90.4111
-103.247
-108.169
-105.74
-97.1964
-84.2656
-68.937
-53.2099
-38.8579
-27.2373
-19.1647
-14.873
-14.0468
-15.9277
-19.467
-23.5042
-26.9432
-28.9032
-28.8269
-26.533
-22.2127
-16.3737
-9.74378
-3.15017
2.60824
6.87767
9.24099
9.57345
8.0573
5.15588
1.55257
-1.93584
-4.45923
-5.23506
-3.63793
0.731701
8.00636
18.0409
30.4321
44.5635
59.6712
74.921
89.488
102.632
113.759
122.468
128.568
132.086
133.238
132.398
130.048
126.715
122.924
119.141
115.735
112.95
110.89
109.519
108.673
108.082
107.399
106.236
104.201
100.933
96.1379
89.6194
81.2988
71.2286
59.5941
46.7032
32.9663
18.8656
4.91865
-8.36251
-20.5116
-31.1442
-39.9865
-46.8927
-51.8515
-54.9785
-56.498
-56.7143
-55.9775
-54.6465
-53.053
-51.4717
-50.0984
-49.0389
-48.3087
-47.8434
-47.5173
-47.1683
-46.624
-45.7276
-44.3582
-42.4459
-39.9784
-36.9993
-33.6012
-29.9119
-26.0791
-22.2539
-18.5756
-15.1605
-12.0943
-9.42846
-7.18166
-5.34382
-3.88249
-2.75007
-1.89091
-1.24725
-0.763623
-0.389686
-0.0815057
0.198063
0.479509
0.786846
1.13759
1.5425
2.00521
2.52201
3.08218
3.66897
4.26146
4.83708
5.37452
5.85647
6.27157
6.61518
6.8885
7.09622
7.24292
7.32903
7.34717
7.27987
7.09957
6.77131
6.25806
5.52815
4.56371
3.3685
1.97394
0.441579
-1.13844
-2.6536
-3.97936
-4.99251
-5.58602
-5.68346
-5.25072
-4.30358
-2.90957
-1.18376
0.721486
2.63166
4.36867
5.77073
6.71146
7.11606
6.97265
6.33743
5.33273
4.13786
2.97319
2.07881
1.68974
2.01018
3.18939
5.30177
8.33343
12.1765
16.6321
21.4219
26.2079
30.6183
34.2788
36.8459
38.0395
37.6719
35.6697
32.0855
27.0988
21.0033
14.1831
7.07974
0.151831
-6.16628
-11.5038
-15.5861
-18.2564
-19.4862
-19.3718
-18.1189
-16.018
-13.4117
-10.6607
-8.10936
-6.05507
-4.72314
-4.24792
-4.6597
-5.87624
-7.69783
-9.80528
-11.7614
-13.0189
-12.9375
-10.8166
-5.94677
2.31776
14.4665
30.7288
50.9709
74.6139
100.592
127.367
153.017
175.391
192.323
201.878
202.599
193.724
175.326
148.368
114.644
76.6209
37.1926
-0.624053
-34.0107
-60.6482
-78.957
-88.2484
-88.7689
-81.6348
-68.6666
-52.1481
-34.5414
-18.1948
-5.08
3.41107
6.58722
4.48737
-2.18026
-12.1756
-23.9191
-35.7106
-45.9469
-53.3106
-56.9088
-56.3494
-51.7507
-43.6879
-33.0896
-21.1007
-8.93005
2.29651
11.6624
18.5531
22.7072
24.2241
23.5306
21.3134
18.4263
15.7856
14.2647
14.5983
17.3076
22.6522
30.6113
40.8972
52.9954
66.2278
79.8303
93.0361
105.156
115.647
124.161
130.568
134.955
137.599
138.91
139.369
139.446
139.526
139.848
140.46
141.204
141.726
141.525
140.017
136.615
130.827
122.33
111.039
97.1428
81.1076
63.6451
45.6493
28.1085
12.0035
-1.79442
-12.6149
-20.0577
-24.0307
-24.7546
-22.7325
-18.6895
-13.4893
-8.03883
-3.19178
0.338285
2.04477
1.66889
-0.789173
-5.08826
-10.7896
-17.3187
-24.0382
-30.3213
-35.6187
-39.5114
-41.7447
-42.2411
-41.0934
-38.5399
-34.9262
-30.6596
-26.1626
-21.8282
-17.9849
-14.8719
-12.6265
-11.2839
-10.7873
-11.0062
-11.7593
-12.8393
-14.0365
-15.1584
-16.0449
-16.5772
-16.6821
-16.3311
-15.5355
-14.3404
-12.8162
-11.0502
-9.13915
-7.18151
-5.27137
-3.49305
-1.91688
-0.595926
0.436094
1.1658
1.59983
1.76324
1.69675
1.45277
1.09074
0.67188
0.254031
-0.113143
-0.39201
-0.559588
-0.608621
-0.547053
-0.395915
-0.185899
0.0470196
0.266374
0.439837
0.543144
0.562829
0.497498
0.357527
0.163288
-0.0578324
-0.275224
-0.459146
-0.584607
-0.634491
-0.601501
-0.488646
-0.308174
-0.0791216
0.176169
0.436028
0.683351
0.908823
1.113
1.30695
1.51135
1.75416
2.06729
2.48255
3.02777
3.72322
4.57914
5.59431
6.75597
8.04075
9.41648
10.8445
12.282
13.6848
15.009
16.2134
17.2606
18.1189
18.7628
19.1741
19.3426
19.2652
18.946
18.3948
17.6254
16.6541
15.4973
14.1705
12.6873
11.0589
9.29458
7.40263
5.39134
3.27008
1.05019
-1.25431
-3.62602
-6.04316
-8.47819
-10.8959
-13.2515
-15.4891
-17.5407
-19.3276
-20.7622
-21.7514
-22.1991
-22.0064
-21.0671
-19.2579
-16.4235
-12.3608
-6.80667
0.562085
10.1097
22.1985
37.1207
55.0116
75.7548
98.8967
123.59
148.585
172.273
192.807
208.26
216.842
217.118
208.218
189.99
163.091
128.974
89.7882
48.1829
7.05231
-30.76
-62.7529
-87.0221
-102.444
-108.766
-106.602
-97.319
-82.8519
-65.4594
-47.4563
-30.9559
-17.6534
-8.67257
-4.48976
-4.94064
-9.30104
-16.4277
-24.9369
-33.3961
-40.5043
-45.2406
-46.9644
-45.46
-40.9248
-33.9076
-25.208
-15.7536
-6.47195
1.82847
8.55257
13.3803
16.2901
17.5441
17.6396
17.2348
17.0587
17.8172
20.107
24.3461
30.7291
39.2101
49.5149
61.1782
73.6011
86.1205
98.0816
108.906
118.147
125.524
130.944
134.491
136.4
137.02
136.76
136.031
135.198
134.528
134.157
134.073
134.111
133.972
133.255
131.504
128.264
123.144
115.875
106.353
94.6768
81.1506
66.2731
50.6963
35.1665
20.4492
7.24947
-3.86373
-12.5185
-18.5786
-22.1533
-23.5777
-23.3661
-22.1443
-20.5699
-19.252
-18.681
-19.1753
-20.8546
-23.6381
-27.2705
-31.3671
-35.474
-39.1335
-41.945
-43.6155
-43.993
-43.0796
-41.0242
-38.0978
-34.6545
-31.0859
-27.7729
-25.0438
-23.1403
-22.1979
-22.2386
-23.179
-24.8478
-27.013
-29.4109
-31.7769
-33.8712
-35.4989
-36.5225
-36.8664
-36.5141
-35.5002
-33.8982
-31.8075
-29.3403
-26.6103
-23.7244
-20.7774
-17.8496
-15.0068
-12.302
-9.77759
-7.4678
-5.40012
-3.59626
-2.07194
-0.836025
0.110785
0.777127
1.18172
1.35326
1.32937
1.15448
0.876892
0.545382
0.205542
-0.103512
-0.351788
-0.5201
-0.600577
-0.595947
-0.517652
-0.382963
-0.21138
-0.0206995
0.176829
0.377754
0.589669
0.832088
1.13576
1.54038
2.09084
2.83227
3.80434
5.03529
6.53631
8.29685
10.2815
12.4289
14.6529
16.8468
18.8891
20.6522
22.0115
22.8562
23.0974
22.6772
21.5728
19.8002
17.4133
14.501
11.1823
7.59875
3.90704
0.270199
-3.15061
-6.20397
-8.75525
-10.6929
-11.9335
-12.4262
-12.1556
-11.1443
-9.45312
-7.18078
-4.46084
-1.45649
1.64752
4.65557
7.37417
9.62622
11.2651
12.1872
12.341
11.7321
10.4221
8.52279
6.1852
3.58485
0.905292
-1.67857
-4.01523
-5.98796
-7.5217
-8.58497
-9.18715
-9.37168
-9.20636
-8.77222
-8.15189
-7.41849
-6.62531
-5.79572
-4.9125
-3.90561
-2.63813
-0.891725
1.645
5.37958
10.803
18.4546
28.8592
42.4388
59.4036
79.6405
102.617
127.326
152.293
175.649
195.291
209.093
215.158
212.07
199.117
176.435
145.065
106.892
64.492
20.8777
-20.8038
-57.5961
-87.0361
-107.399
-117.854
-118.521
-110.411
-95.2814
-75.4055
-53.3044
-31.4652
-12.0832
3.14576
13.1603
17.5873
16.7133
11.385
2.85517
-7.40226
-17.884
-27.2326
-34.3761
-38.6201
-39.6842
-37.6866
-33.0822
-26.568
-18.9687
-11.1199
-3.76273
2.54029
7.45788
10.9099
13.0545
14.2471
14.9786
15.8032
17.2637
19.8242
23.819
29.4192
36.6223
45.2618
55.0342
65.539
76.3243
86.934
96.9486
106.018
113.881
120.372
125.418
129.023
131.247
132.183
131.938
130.614
128.299
125.06
120.946
115.995
110.245
103.739
96.5373
88.7197
80.3907
71.6768
62.7245
53.6945
44.7551
36.0727
27.8021
20.0753
12.9907
6.60447
0.924868
-4.08777
-8.51527
-12.4697
-16.076
-19.4526
-22.6906
-25.8379
-28.8881
-31.779
-34.3995
-36.6057
-38.2428
-39.1709
-39.2903
-38.562
-37.0211
-34.7808
-32.0256
-28.9954
-25.9611
-23.1969
-20.9501
-19.4147
-18.7097
-18.8657
-19.8215
-21.4294
-23.4698
-25.6729
-27.7439
-29.3911
-30.3523
-30.4176
-29.4468
-27.3804
-24.2432
-20.1412
-15.2525
-9.81368
-4.10246
1.58202
6.93961
11.6896
15.5894
18.4514
20.1551
20.6553
19.9847
18.2507
15.6269
12.3389
8.64746
4.82758
1.14815
-2.148
-4.86114
-6.84729
-8.02565
-8.38024
-7.95583
-6.84884
-5.19455
-3.15195
-0.888082
1.43646
3.67961
5.72631
7.49304
8.92837
10.01
10.739
11.1327
11.2165
11.0162
10.5514
9.83096
8.85001
7.59084
6.02599
4.12455
1.86099
-0.774448
-3.76484
-7.05712
-10.5557
-14.121
-17.5743
-20.7088
-23.3069
-25.1617
-26.1002
-26.0047
-24.8302
-22.6143
-19.478
-15.617
-11.2839
-6.76376
-2.34519
1.70882
5.18714
7.95064
9.94367
11.1957
11.8128
11.9603
11.8383
11.6533
11.5896
11.7839
12.3063
13.1515
14.2389
15.4246
16.5206
17.3218
17.6334
17.2988
16.2217
14.3808
11.8352
8.71937
5.23008
1.60508
-1.902
-5.04821
-7.62584
-9.48202
-10.5314
-10.761
-10.2267
-9.04328
-7.3701
-5.39387
-3.31191
-1.31734
0.412995
1.72744
2.50642
2.66865
2.17854
1.05648
-0.607107
-2.63451
-4.7425
-6.52763
-7.46138
-6.90192
-4.12922
1.59259
10.9257
24.3483
42.0345
63.7446
88.7442
115.775
143.094
168.584
189.939
204.902
211.526
208.431
195.011
171.563
139.315
100.34
57.3702
13.5257
-28.0073
-64.3054
-93.0054
-112.534
-122.241
-122.426
-114.258
-99.5952
-80.7469
-60.1915
-40.297
-23.0745
-9.99032
-1.85666
1.19322
-0.351579
-5.50376
-12.9489
-21.2385
-28.9794
-34.9974
-38.4566
-38.9254
-36.3853
-31.1881
-23.9716
-15.5488
-6.78655
1.5094
8.68988
14.3284
18.2527
20.5409
21.487
21.5433
21.2483
21.1523
21.7491
23.4226
26.4128
30.804
36.5344
43.4221
51.2028
59.5714
68.2221
76.8792
85.3169
93.3654
100.904
107.847
114.122
119.652
124.338
128.053
130.647
131.951
131.802
130.061
126.636
121.498
114.697
106.363
96.7032
85.9948
74.5675
62.7858
51.0282
39.6658
29.0419
19.4514
11.1239
4.2073
-1.24263
-5.26892
-8.01241
-9.7029
-10.6414
-11.1743
-11.6598
-12.432
-13.7635
-15.8331
-18.7024
-22.3045
-26.4475
-30.8327
-35.0863
-38.8011
-41.5833
-43.0986
-43.1117
-41.5158
-38.3467
-33.782
-28.1238
-21.7698
-15.174
-8.80266
-3.09056
1.59872
5.00369
6.98471
7.53088
6.75396
4.8707
2.17591
-0.99034
-4.27766
-7.35876
-9.95799
-11.8724
-12.9838
-13.2613
-12.7549
-11.5814
-9.90527
-7.91659
-5.80908
-3.76032
-1.91625
-0.381088
0.786843
1.57354
2.00284
2.12634
2.01133
1.72832
1.33996
0.892605
0.411572
-0.0992929
-0.653909
-1.27672
-1.99323
-2.81996
-3.75568
-4.77561
-5.82978
-6.84613
-7.73799
-8.4149
-8.7951
-8.81774
-8.45273
-7.7068
-6.62475
-5.28554
-3.79404
-2.2693
-0.831228
0.412662
1.37863
2.0149
2.30564
2.27062
1.96062
1.44958
0.824526
0.174833
-0.418054
-0.889027
-1.19509
-1.318
-1.26375
-1.05917
-0.746461
-0.376371
-0.00109227
0.332298
0.587087
0.740417
0.78492
0.728767
0.594762
0.419249
0.251513
0.15391
0.202419
0.486648
1.1079
2.17388
3.78889
6.0396
8.97732
12.5994
16.8331
21.5257
26.4442
31.2864
35.7046
39.338
41.8526
42.9816
42.5607
40.5538
37.065
32.3326
26.7088
20.6232
14.5378
8.89728
4.08143
0.365498
-2.10636
-3.33165
-3.44306
-2.68598
-1.38341
0.107385
1.44115
2.32877
2.57507
2.10761
0.995107
-0.544431
-2.14562
-3.30763
-3.41711
-1.78442
2.30424
9.51657
20.3863
35.2126
53.9571
76.1548
100.859
126.638
151.642
173.741
190.729
200.575
201.68
193.119
174.804
147.568
113.125
73.9205
32.888
-6.86313
-42.3824
-71.1933
-91.5482
-102.591
-104.409
-97.9761
-84.9942
-67.6574
-48.3777
-29.5032
-13.0637
-0.57495
7.08236
9.69826
7.6878
1.9761
-6.16568
-15.3093
-24.0581
-31.2125
-35.8946
-37.6209
-36.3187
-32.2912
-26.1394
-18.6559
-10.7054
-3.10936
3.45271
8.51438
11.8597
13.5265
13.7783
13.0527
11.894
10.8817
10.5626
11.3938
13.7023
17.6621
23.2893
30.4524
38.8948
48.2656
58.1545
68.1275
77.76
86.6658
94.5203
101.076
106.174
109.744
111.799
112.431
111.79
110.069
107.481
104.24
100.533
96.5121
92.2701
87.8408
83.198
78.2666
72.9417
67.114
60.6976
53.6562
46.023
37.9099
29.5037
21.049
12.8196
5.08361
-1.93316
-8.07838
-13.294
-17.6227
-21.1995
-24.2286
-26.9501
-29.6016
-32.3799
-35.4105
-38.727
-42.2665
-45.8794
-49.3532
-52.4473
-54.9321
-56.6277
-57.4358
-57.3588
-56.5049
-55.0752
-53.3367
-51.5843
-50.0968
-49.094
-48.7022
-48.9323
-49.6761
-50.7196
-51.7733
-52.5142
-52.6339
-51.8853
-50.1206
-47.3155
-43.5749
-39.12
-34.2585
-29.3424
-24.7199
-20.6891
-17.4597
-15.1288
-13.6727
-12.9573
-12.7618
-12.8156
-12.8385
-12.5811
-11.8588
-10.5735
-8.72326
-6.39675
-3.75591
-1.00962
1.6173
3.91483
5.71419
6.90657
7.4524
7.38077
6.78
5.78154
4.54012
3.21309
1.94197
0.838336
-0.0245765
-0.614045
-0.934443
-1.01946
-0.921713
-0.701737
-0.417955
-0.119072
0.16048
0.401879
0.60046
0.762194
0.899022
1.02393
1.14646
1.26928
1.38595
1.48022
1.52676
1.49359
1.34613
1.053
0.59323
-0.0358327
-0.811083
-1.67819
-2.54969
-3.30794
-3.81356
-3.91927
-3.4878
-2.4121
-0.63485
1.83538
4.91449
8.44176
12.1887
15.8777
19.2091
21.8937
23.6875
24.4231
24.035
22.5739
20.2077
17.2092
13.9301
10.7645
8.10592
6.30172
5.6112
6.17178
7.97763
10.8735
14.5654
18.6469
22.6392
26.0407
28.3809
29.2713
28.4499
25.8113
21.4209
15.5103
8.45591
0.741092
-7.09112
-14.4913
-20.9562
-26.0747
-29.5629
-31.2848
-31.2567
-29.636
-26.6962
-22.7917
-18.3156
-13.656
-9.15272
-5.05821
-1.50384
1.52657
4.21355
6.90577
10.106
14.4348
20.5682
29.1499
40.6835
55.4173
73.2376
93.5923
115.463
137.401
157.632
174.223
185.297
189.26
185.025
172.179
151.082
122.879
89.4102
53.0369
16.4032
-17.8404
-47.3135
-70.1492
-85.1742
-92.0057
-91.055
-83.4415
-70.8311
-55.2218
-38.7056
-23.2356
-10.4262
-1.40711
3.25536
3.56633
0.0441713
-6.39122
-14.5657
-23.2132
-31.1332
-37.324
-41.0795
-42.0413
-40.2037
-35.8758
-29.6099
-22.1071
-14.1144
-6.32673
0.694869
6.57991
11.1757
14.5446
16.9344
18.7285
20.3838
22.3656
25.0863
28.8563
33.8507
40.0947
47.4672
55.7207
64.5145
73.4557
82.1423
90.2059
97.346
103.356
108.137
111.699
114.148
115.667
116.485
116.844
116.965
117.014
117.079
117.158
117.148
116.862
116.041
114.386
111.594
107.397
101.597
94.1039
84.9544
74.3261
62.5322
50.0005
37.2383
24.7863
13.1662
2.8301
-5.88334
-12.7795
-17.8215
-21.126
-22.9411
-23.6115
-23.5336
-23.1084
-22.6977
-22.5878
-22.9659
-23.9098
-25.3925
-27.2979
-29.4463
-31.6248
-33.6189
-35.2403
-36.3497
-36.8696
-36.7893
-36.1599
-35.0824
-33.6904
-32.1307
-30.5434
-29.0461
-27.7218
-26.6131
-25.7225
-25.0177
-24.4412
-23.9222
-23.3885
-22.7773
-22.0431
-21.1616
-20.1294
-18.9613
-17.6834
-16.3268
-14.9199
-13.4832
-12.0261
-10.5466
-9.03365
-7.47201
-5.84845
-4.15801
-2.40943
-0.628499
1.14132
2.84143
4.40349
5.75716
6.83905
7.60169
8.02119
8.1023
7.88011
7.41797
6.80167
6.13066
5.5073
5.02567
4.76124
4.7629
5.04821
5.60263
6.38253
7.32179
8.34086
9.35732
10.2965
11.1006
11.7356
12.1938
12.4924
12.6667
12.7598
12.8096
12.836
12.8294
12.7448
12.5023
11.9948
11.1024
9.71297
7.74392
5.1636
2.00726
-1.61476
-5.5191
-9.46198
-13.1613
-16.3257
-18.6864
-20.0287
-20.2171
-19.2131
-17.081
-13.9832
-10.1638
-5.92486
-1.59579
2.49799
6.06525
8.87383
10.7682
11.6781
11.6178
10.6769
9.00462
6.78915
4.23507
1.54184
-1.11468
-3.59561
-5.8062
-7.69652
-9.2562
-10.5046
-11.4783
-12.2177
-12.7554
-13.1074
-13.2684
-13.2118
-12.8948
-12.2654
-11.273
-9.87736
-8.05604
-5.80654
-3.14182
-0.0780138
3.38522
7.28899
11.7396
16.9265
23.1263
30.6876
39.9902
51.3822
65.0965
81.1604
99.3099
118.929
139.028
158.271
175.069
187.717
194.577
194.281
185.921
169.204
144.546
113.088
76.6212
37.4356
-1.89594
-38.7718
-70.8219
-96.1418
-113.471
-122.3
-122.883
-116.174
-103.685
-87.294
-69.0192
-50.8024
-34.3142
-20.8065
-11.0269
-5.19682
-3.05337
-3.94127
-6.94144
-11.0165
-15.1547
-18.4948
-20.4191
-20.6058
-19.0375
-15.9684
-11.8569
-7.27506
-2.80774
1.04384
3.94132
5.76077
6.61042
6.8135
6.85992
7.3347
8.83406
11.8811
16.8527
23.927
33.058
43.9791
56.234
69.2303
82.3071
94.8072
106.144
115.856
123.643
129.375
133.092
134.97
135.288
134.38
132.592
130.243
127.597
124.841
122.084
119.358
116.63
113.814
110.791
107.419
103.549
99.0361
93.7518
87.5981
80.5209
72.5232
63.6757
54.1224
44.078
33.8169
23.6538
13.9169
4.91699
-3.08283
-9.89444
-15.4238
-19.6797
-22.772
-24.897
-26.3148
-27.3191
-28.2034
-29.2287
-30.5939
-32.4148
-34.7121
-37.4105
-40.3491
-43.3012
-46.002
-48.1804
-49.592
-50.0483
-49.4403
-47.7523
-45.0656
-41.5512
-37.4525
-33.0602
-28.6828
-24.6158
-21.1116
-18.3564
-16.4525
-15.411
-15.1533
-15.5229
-16.3054
-17.2544
-18.1216
-18.6866
-18.7826
-18.316
-17.2748
-15.7271
-13.808
-11.6976
-9.5937
-7.68266
-6.11386
-4.98045
-4.3095
-4.06229
-4.14431
-4.42271
-4.74823
-4.9781
-4.99658
-4.73009
-4.15541
-3.30009
-2.23555
-1.06458
0.0948011
1.12653
1.93222
2.44346
2.62925
2.49797
2.09397
1.48988
0.775744
0.047054
-0.606921
-1.11274
-1.41934
-1.50097
-1.35643
-1.00535
-0.482204
0.17065
0.909798
1.69652
2.50075
3.30279
4.09304
4.86978
5.63588
6.39506
7.14855
7.89286
8.61919
9.31455
9.96457
10.5574
11.0876
11.5595
11.9887
12.4004
12.8263
13.2979
13.8403
14.4647
15.164
15.9106
16.6584
17.3484
17.9169
18.3063
18.4752
18.4074
18.1168
17.649
17.0772
16.4945
16.0019
15.6949
15.6492
15.9082
16.4739
17.3017
18.301
19.3396
20.255
20.8673
20.996
20.4771
19.18
17.0217
13.9777
10.0899
5.4684
0.290683
-5.20312
-10.7167
-15.9044
-20.3776
-23.71
-25.4437
-25.0982
-22.1879
-16.2517
-6.89963
6.12363
22.862
43.0678
66.1323
91.0461
116.405
140.473
161.311
176.95
185.606
185.903
177.06
159.036
132.588
99.2398
61.1608
20.9631
-18.5528
-54.677
-85.0589
-107.932
-122.272
-127.867
-125.301
-115.848
-101.297
-83.7382
-65.318
-48.0161
-33.4515
-22.7452
-16.451
-14.5544
-16.5369
-21.4907
-28.2664
-35.6338
-42.4338
-47.707
-50.783
-51.3265
-49.3377
-45.1121
-39.1696
-32.1639
-24.7857
-17.6723
-11.3336
-6.10187
-2.10771
0.716898
2.61309
3.95254
5.18489
6.782
9.18536
12.7615
17.7687
24.3366
32.459
42.0002
52.7111
64.2543
76.2357
88.2372
99.8502
110.705
120.494
128.988
136.041
141.589
145.638
148.247
149.512
149.542
148.446
146.324
143.259
139.323
134.578
129.085
122.91
116.127
108.816
101.06
92.9397
84.5313
75.9036
67.1213
58.2502
49.3655
40.5587
31.9424
23.6494
15.8263
8.62127
2.16629
-3.44114
-8.15539
-11.9948
-15.0457
-17.4571
-19.4252
-21.1695
-22.9039
-24.8061
-26.9905
-29.4879
-32.2374
-35.0901
-37.8259
-40.1811
-41.8839
-42.6907
-42.4216
-40.9871
-38.4035
-34.7954
-30.3842
-25.4642
-20.3708
-15.4435
-10.9899
-7.25468
-4.3969
-2.47869
-1.46563
-1.23836
-1.61315
-2.36837
-3.27324
-4.11513
-4.72209
-4.97845
-4.83183
-4.29178
-3.42058
-2.31841
-1.10506
0.0991362
1.19046
2.09502
2.77662
3.23849
3.51926
3.68405
3.81235
3.98455
4.26923
4.71285
5.33302
6.11589
7.01725
7.96677
8.87423
9.63693
10.1476
10.3026
10.0099
9.19728
7.82041
5.86967
3.3759
0.413577
-2.89959
-6.40716
-9.92292
-13.2441
-16.1678
-18.5084
-20.1157
-20.8892
-20.7892
-19.8414
-18.1355
-15.8167
-13.0723
-10.1141
-7.15815
-4.40504
-2.02206
-0.129459
1.20804
1.98379
2.24588
2.08863
1.64024
1.04826
0.464801
0.0334402
-0.120648
0.103639
0.781975
1.96673
3.69104
5.9728
8.81671
12.2131
16.1328
20.5197
25.2813
30.2808
35.3341
40.2114
44.6484
48.3638
51.0844
52.5732
52.6576
51.2536
48.382
44.1738
38.8636
32.7707
26.2708
19.7606
13.6203
8.17821
3.68131
0.275935
-2.00072
-3.21699
-3.53252
-3.17557
-2.41498
-1.52999
-0.781155
-0.384645
-0.491673
-1.17337
-2.41085
-4.0896
-5.99736
-7.82538
-9.17375
-9.56275
-8.45288
-5.27666
0.515419
9.39382
21.6758
37.4438
56.4666
78.1363
101.438
124.964
146.988
165.592
178.847
185.029
182.833
171.572
151.316
122.953
88.1582
49.2573
9.01545
-29.6436
-63.9436
-91.5504
-110.818
-120.952
-122.069
-115.153
-101.897
-84.4804
-65.2899
-46.6312
-30.472
-18.2411
-10.7094
-7.96194
-9.457
-14.1588
-20.7204
-27.6899
-33.71
-37.687
-38.9106
-37.1117
-32.4583
-25.4951
-17.0388
-8.04846
0.512715
7.80363
13.2065
16.3917
17.342
16.3365
13.8999
10.7264
7.58894
5.24575
4.35511
5.40732
8.68027
14.2217
21.8583
31.2285
41.8335
53.0993
64.4413
75.3243
85.3111
94.0937
101.507
107.523
112.227
115.784
118.399
120.268
121.547
122.322
122.592
122.27
121.198
119.172
115.974
111.41
105.343
97.7265
88.6218
78.2071
66.7724
54.6999
42.4332
30.4376
19.155
8.96031
0.123796
-7.21541
-13.0605
-17.5511
-20.9404
-23.5586
-25.7666
-27.9068
-30.2572
-32.9963
-36.1816
-39.7464
-43.5136
-47.2249
-50.5808
-53.2852
-55.0885
-55.823
-55.4268
-53.9527
-51.561
-48.4995
-45.0728
-41.6054
-38.4048
-35.7277
-33.7551
-32.5777
-32.1926
-32.5113
-33.3771
-34.5885
-35.9253
-37.1744
-38.1518
-38.7184
-38.7889
-38.3323
-37.3655
-35.9409
-34.1302
-32.0073
-29.6324
-27.0408
-24.2381
-21.2022
-17.8947
-14.2761
-10.3265
-6.06555
-1.5677
3.02879
7.52369
11.6674
15.1832
17.7975
19.2729
19.4401
18.2244
15.6625
11.9072
7.21901
1.94519
-3.51068
-8.72639
-13.3008
-16.8918
-19.2473
-20.2279
-19.8162
-18.1149
-15.3321
-11.7568
-7.72775
-3.59877
0.294847
3.66578
6.29677
8.05366
8.88876
8.83502
7.99274
6.51141
4.56932
2.35387
0.0449009
-2.19742
-4.23954
-5.97645
-7.32973
-8.24313
-8.6776
-8.60728
-8.01763
-6.90626
-5.28616
-3.19036
-0.676808
2.16832
5.23014
8.36851
11.4257
14.2378
16.6489
18.5263
19.7742
20.3447
20.2437
19.5306
18.3121
16.7305
14.9479
13.1287
11.4223
9.94841
8.78702
7.97325
7.49768
7.31116
7.33295
7.46047
7.57937
7.57283
7.32977
6.75193
5.76017
4.30048
2.3497
-0.0790918
-2.93248
-6.1147
-9.48888
-12.8825
-16.0973
-18.9227
-21.1526
-22.6017
-23.12
-22.6016
-20.9851
-18.2443
-14.3699
-9.34312
-3.10918
4.44393
13.4914
24.2551
36.9595
51.762
68.6637
87.4158
107.442
127.797
147.18
164.012
176.587
183.26
182.68
173.994
157.026
132.367
101.371
66.0537
28.8907
-7.44258
-40.3636
-67.6629
-87.7342
-99.725
-103.59
-100.044
-90.4305
-76.5246
-60.2981
-43.6867
-28.3831
-15.6797
-6.37716
-0.761976
1.35208
0.531009
-2.40579
-6.52525
-10.9146
-14.7931
-17.591
-18.9893
-18.9203
-17.5351
-15.1449
-12.1478
-8.95213
-5.90675
-3.24704
-1.0623
0.7126
2.28179
3.95292
6.08744
9.04413
13.124
18.524
25.3053
33.3809
42.5216
52.382
62.5389
72.5399
81.9531
90.4129
97.6553
103.54
108.056
111.312
113.512
114.922
115.832
116.513
117.186
117.991
118.969
120.058
121.098
121.85
122.022
121.303
119.394
116.048
111.097
104.474
96.2285
86.53
75.6562
63.9763
51.921
39.9462
28.492
17.9422
8.58717
0.597005
-5.99342
-11.2838
-15.4919
-18.924
-21.9338
-24.8778
-28.0704
-31.7464
-36.0349
-40.9474
-46.3817
-52.14
-57.9584
-63.5431
-68.6085
-72.9114
-76.2778
-78.6188
-79.9344
-80.3052
-79.8755
-78.8291
-77.3631
-75.6625
-73.8795
-72.1191
-70.4333
-68.8215
-67.2391
-65.61
-63.8414
-61.8405
-59.5279
-56.8494
-53.7826
-50.3392
-46.5633
-42.5248
-38.312
-34.0218
-29.7511
-25.5896
-21.6151
-17.8903
-14.463
-11.3664
-8.62169
-6.23946
-4.22179
-2.56325
-1.2515
-0.267396
0.415093
0.828732
1.01248
1.01033
0.869429
0.637728
0.361231
0.0812396
-0.168117
-0.361744
-0.484629
-0.531924
-0.5081
-0.42526
-0.300847
-0.155028
-0.00804781
0.122128
0.221676
0.282103
0.300724
0.280471
0.229161
0.158412
0.0823887
0.0165834
-0.0232531
-0.021921
0.0346949
0.15934
0.363268
0.656173
1.04604
1.53884
2.13793
2.84336
3.65099
4.55179
5.53131
6.56979
7.64283
8.72269
9.78032
10.7877
11.7204
12.5599
13.2951
13.9235
14.451
14.8904
15.2595
15.5782
15.8656
16.1368
16.4011
16.6606
16.9099
17.1377
17.328
17.4633
17.526
17.5013
17.3776
17.1475
16.8065
16.3525
15.7841
15.0991
14.294
13.3631
12.2985
11.0909
9.73002
8.20591
6.51046
4.63925
2.59373
0.383407
-1.97202
-4.44074
-6.97725
-9.52071
-11.9929
-14.2945
-16.2997
-17.8468
-18.7264
-18.668
-17.3288
-14.2923
-9.08122
-1.19579
9.82238
24.2997
42.3241
63.6379
87.5543
112.918
138.132
161.259
180.192
192.885
197.605
193.172
179.156
155.988
124.972
88.1879
48.2921
8.24608
-28.9965
-60.8027
-85.1332
-100.74
-107.27
-105.257
-96.0176
-81.4562
-63.8201
-45.4254
-28.3969
-14.448
-4.72684
0.258556
0.633315
-2.92606
-9.33162
-17.26
-25.3397
-32.325
-37.2373
-39.4582
-38.7684
-35.3319
-29.6345
-22.3867
-14.4089
-6.51419
0.596126
6.41196
10.6614
13.3229
14.6039
14.8929
14.6933
14.549
14.9732
16.3881
19.0839
23.1991
28.7236
35.5202
43.3599
51.9629
61.0387
70.3189
79.5777
88.6397
97.3748
105.684
113.478
120.659
127.106
132.659
137.129
140.298
141.937
141.829
139.792
135.699
129.502
121.248
111.085
99.2721
86.1654
72.2096
57.9123
43.8149
30.4561
18.3338
7.86671
-0.640037
-7.02086
-11.2652
-13.5194
-14.0742
-13.3386
-11.8015
-9.98557
-8.39798
-7.4827
-7.58016
-8.89833
-11.4983
-15.2953
-20.0754
-25.5239
-31.263
-36.8943
-42.0396
-46.3777
-49.6715
-51.7855
-52.6903
-52.4562
-51.2375
-49.2493
-46.7413
-43.9703
-41.1754
-38.5581
-36.2683
-34.3972
-32.9771
-31.9864
-31.3594
-30.9991
-30.7895
-30.6094
-30.3429
-29.8881
-29.1633
-28.1098
-26.6934
-24.9034
-22.751
-20.2662
-17.4952
-14.4968
-11.3387
-8.09371
-4.83635
-1.63911
1.43058
4.31295
6.95773
9.32509
11.3857
13.1199
14.5166
15.5712
16.2847
16.6617
16.7099
16.4396
15.8639
14.9988
13.8639
12.4838
10.8903
9.12418
7.23879
5.30192
3.39709
1.62228
0.0857577
-1.10157
-1.83671
-2.03719
-1.6539
-0.682327
0.830188
2.78252
5.0244
7.36754
9.60223
11.5177
12.9235
13.6696
13.6621
12.8728
11.3421
9.17336
6.52161
3.5765
0.542495
-2.38137
-5.01996
-7.23666
-8.94271
-10.1006
-10.7218
-10.8589
-10.5947
-10.0282
-9.26132
-8.38583
-7.47379
-6.571
-5.69474
-4.83505
-3.95938
-3.01936
-1.95884
-0.722336
0.736713
2.44823
4.41839
6.62329
9.00391
11.4631
13.8656
16.043
17.8035
18.9473
19.2871
18.6699
17.0002
14.2578
10.5095
5.91135
0.700276
-4.82466
-10.3289
-15.4741
-19.951
-23.509
-25.979
-27.2867
-27.4556
-26.5985
-24.9004
-22.5944
-19.9336
-17.1618
-14.4857
-12.0492
-9.91051
-8.02387
-6.22543
-4.22661
-1.61808
2.11148
7.538
15.2439
25.7404
39.3751
56.2353
76.0598
98.1773
121.486
144.489
165.392
182.255
193.194
196.602
191.362
177.024
153.915
123.16
86.6151
46.7071
6.1984
-32.0881
-65.5568
-92.1021
-110.313
-119.596
-120.206
-113.18
-100.187
-83.3184
-64.8392
-46.942
-31.5225
-20.0068
-13.2447
-11.4766
-14.3702
-21.1174
-30.573
-41.4153
-52.3076
-62.0419
-69.6501
-74.4748
-76.196
-74.8177
-70.6199
-64.0885
-55.8325
-46.501
-36.7081
-26.9743
-17.686
-9.07677
-1.22624
5.9248
12.5483
18.8961
25.264
31.9569
39.2566
47.3938
56.527
66.7264
77.9668
90.1258
102.991
116.272
129.623
142.662
155
166.27
176.147
184.374
190.775
195.262
197.839
198.586
197.653
195.233
191.542
186.796
181.187
174.873
167.963
160.517
152.55
144.043
134.955
125.247
114.889
103.887
92.2849
80.1821
67.7309
55.1358
42.6455
30.5385
19.1055
8.62796
-0.644304
-8.51378
-14.8527
-19.6145
-22.8383
-24.6455
-25.2279
-24.8303
-23.7281
-22.2026
-20.5178
-18.8991
-17.5189
-16.4876
-15.8524
-15.6026
-15.6797
-15.9924
-16.4313
-16.8848
-17.251
-17.447
-17.4137
-17.1164
-16.5418
-15.694
-14.5877
-13.2428
-11.6802
-9.91848
-7.97445
-5.8648
-3.61034
-1.24101
1.19908
3.64803
6.02493
8.23194
10.1598
11.6967
12.7392
13.2046
13.0422
12.2433
10.8465
8.93997
6.65763
4.17115
1.67788
-0.613962
-0.613962
-0.613962
-0.613962
-0.613962
-0.613962
-0.613962
-0.613962
-0.613962
-0.613962
-0.613962
-0.613962
-0.613962
-0.613962
-0.613962
-0.613962
-0.613962
-0.613962
-0.613962
-0.613962
