-385.078
-394.333
-405.088
-417.131
-430.107
-443.527
-456.781
-469.173
-479.957
-488.385
-493.759
-495.475
-493.066
-486.234
-474.871
-459.066
-439.095
-415.409
-388.597
-359.358
-328.457
-296.687
-264.829
-233.618
-203.714
-175.676
-149.943
-126.824
-106.486
-88.9582
-74.1392
-61.8106
-51.6603
-43.3099
-36.3473
-30.36
-24.9675
-19.8503
-14.7708
-9.58709
-4.25623
1.17171
6.5685
11.7494
16.4996
20.602
23.8637
26.1391
27.3459
27.4744
26.588
24.8162
22.3416
19.3814
16.1676
12.9268
9.86228
7.14077
4.88334
3.16238
2.00342
1.39095
1.27707
1.59137
2.25078
3.16824
4.25954
5.44809
6.66777
7.86413
8.99439
10.0266
10.9384
11.7149
12.3474
12.8304
13.1608
13.3353
13.3497
13.1985
12.8753
12.3742
11.6918
10.8299
9.79784
8.61519
7.3125
5.9314
4.52291
3.14423
1.85441
0.709201
-0.244174
-0.971613
-1.45557
-1.69678
-1.71406
-1.54219
-1.22812
-0.826028
-0.391683
0.0229859
0.37469
0.632336
0.779017
0.812308
0.742951
0.592197
0.388223
0.162107
-0.0561119
-0.240861
-0.373566
-0.444095
-0.451037
-0.400907
-0.306472
-0.184509
-0.0532999
0.0697737
0.170276
0.238177
0.26861
0.261912
0.223017
0.160336
0.0843362
0.00600986
-0.0645553
-0.119339
-0.153167
-0.164056
-0.153112
-0.124065
-0.0825171
-0.0350371
0.0117651
0.0520741
0.0815138
0.0975431
0.0995789
0.0888601
0.0680973
0.040975
0.0115844
-0.0161343
-0.0388711
-0.0542955
-0.0612451
-0.0597473
-0.0508893
-0.0365688
-0.0191686
-0.00120544
0.0150006
0.0275972
0.0353831
0.0378898
0.0353629
0.0286529
0.0190234
0.00781596
-0.00431141
-0.0193508
-0.0466701
-0.112849
-0.279285
-0.669455
-1.50558
-3.15101
-6.1506
-11.2577
-19.4341
-31.8098
-49.5924
-73.9248
-105.696
-145.328
-192.56
-246.279
-304.418
-363.97
-421.126
-471.545
-510.739
-534.529
-539.527
-523.57
-486.065
-428.167
-352.781
-264.358
-168.515
-71.5204
20.3106
101.221
166.556
213.185
239.748
246.706
236.197
211.725
177.715
139.002
100.308
65.775
38.5891
20.7465
12.9669
14.7553
24.5928
40.2218
58.9858
78.1788
95.3634
108.625
116.738
119.233
116.369
109.017
98.4894
86.3255
74.0717
63.0835
54.3665
48.4762
45.4825
44.9975
46.2581
48.25
49.8521
49.984
47.7372
42.4758
33.8965
22.0448
7.28854
-9.74555
-28.2607
-47.3934
-66.3177
-84.3379
-100.961
-115.938
-129.28
-141.235
-152.24
-162.858
-173.691
-185.302
-198.136
-212.459
-228.322
-245.542
-263.722
-282.283
-300.525
-317.686
-333.017
-345.839
-355.595
-361.879
-364.451
-363.234
-358.292
-349.806
-338.042
-323.318
-305.985
-286.405
-264.945
-241.974
-217.868
-193.015
-167.824
-142.723
-118.164
-94.6081
-72.5176
-52.3302
-34.4353
-19.1461
-6.67384
2.89347
9.60374
13.6427
15.3237
15.0657
13.3611
10.7361
7.70878
4.74773
2.23755
0.453344
-0.452484
-0.450441
0.378314
1.86458
3.78087
5.87451
7.89997
9.64692
10.9611
11.7563
12.017
11.792
11.1816
10.3194
9.35199
8.42
7.64093
7.09718
6.82945
6.8358
7.07603
7.48015
7.95943
8.41854
8.7672
8.93001
8.85371
8.51125
7.90276
7.05344
6.00919
4.83048
3.58532
2.34214
1.16326
0.0995341
-0.813492
-1.55758
-2.13203
-2.55224
-2.84678
-3.05346
-3.21472
-3.3728
-3.5653
-3.82143
-4.1595
-4.58574
-5.0946
-5.67048
-6.29048
-6.92777
-7.55523
-8.1486
-8.68897
-9.16422
-9.56912
-9.90437
-10.1747
-10.3861
-10.5431
-10.6459
-10.688
-10.6552
-10.5245
-10.2659
-9.84432
-9.22308
-8.36855
-7.25496
-5.86934
-4.21572
-2.31811
-0.221763
2.0076
4.28664
6.51919
8.60258
10.4349
11.9225
12.987
13.5712
13.6431
13.1983
12.2588
10.8716
9.10298
7.03382
4.75238
2.34826
-0.0932101
-2.49495
-4.79034
-6.92333
-8.84652
-10.5176
-11.8943
-12.9294
-13.5648
-13.7274
-13.3267
-12.2557
-10.3948
-7.62134
-3.82183
1.09193
7.16597
14.3884
22.6778
31.8771
41.7554
52.0162
62.3105
72.2503
81.4184
89.3695
95.6191
99.6219
100.742
98.227
91.1921
78.6366
59.4961
32.7435
-2.46426
-46.6034
-99.5838
-160.564
-227.815
-298.665
-369.554
-436.224
-494.026
-538.331
-565.007
-570.901
-554.254
-515.007
-454.927
-377.541
-287.862
-191.947
-96.3227
-7.352
69.3794
129.589
170.671
191.879
194.3
180.63
154.792
121.436
85.4009
51.188
22.5186
2.0111
-8.98842
-10.4172
-3.35981
10.2063
27.7424
46.5123
63.9306
77.8576
86.8081
90.0603
87.6591
80.3259
69.2947
56.1022
42.3628
29.5583
18.8661
11.0444
6.38218
4.71357
5.48809
7.88176
10.9305
13.6663
15.2379
15.0031
12.5827
7.87382
1.02684
-7.60882
-17.5573
-28.2963
-39.3326
-50.2636
-60.8176
-70.8711
-80.4413
-89.6603
-98.7337
-107.894
-117.35
-127.251
-137.652
-148.501
-159.64
-170.822
-181.733
-192.029
-201.367
-209.436
-215.974
-220.78
-223.71
-224.663
-223.564
-220.344
-214.929
-207.233
-197.174
-184.7
-169.821
-152.652
-133.452
-112.646
-90.8258
-68.7354
-47.2217
-27.1699
-9.42409
5.29501
16.4646
23.8159
27.3637
27.406
24.4918
19.363
12.8759
5.91302
-0.704087
-6.29111
-10.358
-12.6407
-13.1063
-11.9319
-9.46197
-6.15076
-2.49811
1.01402
3.97634
6.09278
7.20342
7.28877
6.45668
4.9155
2.93795
0.821488
-1.14971
-2.73648
-3.76691
-4.14747
-3.86307
-2.96759
-1.56724
0.199795
2.18458
4.24642
6.26769
8.16312
9.88331
11.4129
12.7647
13.9712
15.075
16.1202
17.1451
18.1777
19.2338
20.3172
21.4225
22.5374
23.6466
24.7341
25.7852
26.7869
27.7273
28.5951
29.3776
30.0607
30.6281
31.0625
31.3472
31.4681
31.4163
31.1901
30.7954
30.246
29.5612
28.7635
27.874
26.9097
25.8797
24.7837
23.6123
22.3483
20.9705
19.4584
17.7971
15.9829
14.0267
11.9564
9.81711
7.66884
5.58205
3.6316
1.88957
0.418138
-0.73692
-1.55098
-2.02321
-2.1766
-2.05552
-1.72101
-1.2445
-0.700641
-0.160152
0.316436
0.683385
0.911982
0.989906
0.917549
0.701651
0.347201
-0.150806
-0.813832
-1.68262
-2.81503
-4.27845
-6.13754
-8.4388
-11.1946
-14.3691
-17.869
-21.5402
-25.1729
-28.5137
-31.2849
-33.2088
-34.0333
-33.5581
-31.6564
-28.2907
-23.5214
-17.5057
-10.4893
-2.78978
5.22468
13.1595
20.6161
27.2085
32.5692
36.3402
38.1475
37.5608
34.0454
26.9197
15.3347
-1.70542
-25.266
-56.3396
-95.6407
-143.359
-198.903
-260.684
-325.994
-391.026
-451.066
-500.873
-535.203
-549.435
-540.203
-505.936
-447.228
-366.951
-270.094
-163.324
-54.3231
49.0187
139.441
211.082
260.076
284.899
286.436
267.763
233.683
190.085
143.213
98.9438
62.157
36.2665
22.9673
22.2053
32.3606
50.6045
73.3715
96.8812
117.638
132.854
140.739
140.646
133.055
119.413
101.867
82.928
65.1153
50.6243
41.064
37.2843
39.3116
46.3903
57.1176
69.6483
81.9397
92.0035
98.1353
99.0943
94.2169
83.4548
67.3387
46.8769
23.4068
-1.58124
-26.6232
-50.443
-72.0792
-90.9643
-106.952
-120.29
-131.557
-141.555
-151.191
-161.351
-172.787
-186.022
-201.29
-218.51
-237.298
-257.01
-276.818
-295.795
-313.013
-327.63
-338.97
-346.571
-350.21
-349.898
-345.847
-338.42
-328.062
-315.233
-300.354
-283.752
-265.648
-246.152
-225.288
-203.034
-179.375
-154.357
-128.128
-100.976
-73.3333
-45.7711
-18.9622
6.36986
29.514
49.8392
66.8567
80.2687
89.997
96.1891
99.198
99.5417
97.845
94.7721
90.9585
86.9504
83.1576
79.8267
77.0349
74.7047
72.6361
70.5509
68.1434
65.1296
61.2898
56.4993
50.7454
44.1289
36.8525
29.1982
21.4971
14.0961
7.32409
1.4616
-3.28468
-6.79998
-9.07132
-10.1886
-10.3365
-9.77791
-8.82981
-7.83282
-7.11753
-6.97007
-7.60057
-9.11813
-11.5156
-14.6664
-18.3351
-22.2001
-25.8874
-29.0113
-31.2174
-32.2227
-31.8488
-30.0429
-26.8863
-22.5868
-17.4585
-11.8894
-6.30251
-1.1133
3.31095
6.68538
8.83217
9.69309
9.32911
7.90788
5.6811
2.9547
0.0554878
-2.70212
-5.0461
-6.77068
-7.75243
-7.95753
-7.44003
-6.33191
-4.8257
-3.15122
-1.54786
-0.234472
0.620847
0.928482
0.6992
0.0570596
-0.759753
-1.41228
-1.48893
-0.547037
1.83581
6.00603
12.1807
20.4036
30.5167
42.1528
54.7501
67.5915
79.8627
90.7262
99.4013
105.239
107.781
106.784
102.212
94.1715
82.8201
68.2394
50.3133
28.636
2.48532
-29.1127
-67.2157
-112.703
-165.952
-226.51
-292.825
-362.109
-430.388
-492.758
-543.84
-578.39
-591.971
-581.596
-546.24
-487.125
-407.742
-313.579
-211.591
-109.477
-14.8583
65.5337
126.559
165.168
180.646
174.572
150.526
113.568
69.5885
24.6036
-15.9162
-47.5978
-67.5464
-74.5203
-68.8989
-52.4629
-28.0345
0.969523
31.0051
58.8335
81.8692
98.4093
107.732
110.064
106.441
98.4762
88.1004
77.279
67.7641
60.8988
57.4929
57.7767
61.4321
67.6862
75.4519
83.4917
90.584
95.6708
97.9706
97.046
92.8232
85.563
75.7939
64.2158
51.5922
38.6419
25.9473
13.8888
2.6133
-7.96112
-18.1063
-28.2182
-38.7343
-50.047
-62.4268
-75.9641
-90.5406
-105.832
-121.341
-136.458
-150.532
-162.95
-173.208
-180.954
-186.017
-188.399
-188.237
-185.756
-181.207
-174.814
-166.741
-157.072
-145.835
-133.031
-118.694
-102.939
-86.0102
-68.3081
-50.3841
-32.912
-16.6311
-2.2725
9.5222
18.2761
23.7361
25.9072
25.0553
21.6809
16.4651
10.1974
3.69335
-2.28641
-7.10596
-10.3062
-11.6331
-11.0425
-8.68055
-4.84744
0.0515901
5.55938
11.2175
16.6083
21.3855
25.2899
28.1539
29.8945
30.501
30.0206
28.5441
26.1965
23.1297
19.52
15.5653
11.4813
7.49483
3.83196
0.702042
-1.72105
-3.31774
-4.0382
-3.91114
-3.04375
-1.61174
0.159656
2.0214
3.72962
5.0738
5.90026
6.12787
5.75398
4.85008
3.54814
2.01998
0.452589
-0.976702
-2.12187
-2.88341
-3.21527
-3.12287
-2.65312
-1.8789
-0.88097
0.268819
1.52009
2.84996
4.26174
5.77718
7.42421
9.22315
11.1744
13.25
15.3905
17.5077
19.492
21.2225
22.5798
23.4566
23.7681
23.459
22.5078
20.9284
18.7688
16.1078
13.0495
9.71466
6.23197
2.72607
-0.694426
-3.94906
-6.99622
-9.84079
-12.5372
-15.1865
-17.9266
-20.9161
-24.3128
-28.2479
-32.8009
-37.9754
-43.6812
-49.7246
-55.8081
-61.5416
-66.4655
-70.0828
-71.9003
-71.4743
-68.4578
-62.6432
-53.9978
-42.6843
-29.0648
-13.6851
2.7612
19.4854
35.6692
50.5336
63.4042
73.7599
81.257
85.7194
87.0923
85.362
80.4531
72.1228
59.878
42.9422
20.296
-9.1929
-46.5558
-92.4423
-146.816
-208.679
-275.886
-345.103
-411.941
-471.29
-517.804
-546.508
-553.433
-536.185
-494.376
-429.822
-346.489
-250.17
-147.928
-47.3802
44.1007
120.152
176.067
209.243
219.373
208.371
180.056
139.619
92.9807
46.0947
4.29479
-28.2371
-48.8318
-56.4876
-51.8179
-36.8125
-14.4579
11.7259
38.1674
61.6834
79.8271
91.1081
95.0715
92.238
83.9284
72.0031
58.5602
45.6336
34.9283
27.6253
24.2726
24.7692
28.4355
34.1523
40.5449
46.1824
49.7669
50.2881
47.126
40.0958
29.4336
15.7323
-0.160488
-17.2636
-34.5873
-51.2446
-66.5396
-80.0223
-91.5103
-101.077
-109.014
-115.773
-121.898
-127.956
-134.472
-141.874
-150.458
-160.361
-171.562
-183.884
-197.022
-210.573
-224.067
-237.01
-248.907
-259.295
-267.753
-273.912
-277.456
-278.126
-275.717
-270.085
-261.162
-248.97
-233.639
-215.42
-194.696
-171.973
-147.859
-123.036
-98.21
-74.0701
-51.2389
-30.2365
-11.4542
4.85771
18.589
29.7566
38.483
44.9703
49.4714
52.2621
53.6157
53.7823
52.9741
51.3577
49.0552
46.1528
42.7175
38.8172
34.5427
30.0249
25.4447
21.0314
17.0497
13.7739
11.456
10.29
10.3791
11.7129
14.1571
17.4597
21.2734
25.1914
28.7925
31.689
33.5713
34.243
33.642
31.8446
29.0521
25.563
21.7334
17.9324
14.4968
11.6936
9.69211
8.55042
8.21668
8.54403
9.31629
10.2805
11.1817
11.7949
11.9512
11.5546
10.5884
9.11145
7.24543
5.15512
3.02536
1.03738
-0.652549
-1.9296
-2.73054
-3.04682
-2.92094
-2.43704
-1.7075
-0.857397
-0.00901211
0.731798
1.28595
1.60722
1.68383
1.53573
1.20839
0.76425
0.273026
-0.197808
-0.591243
-0.866877
-1.00451
-1.00505
-0.888986
-0.692741
-0.463523
-0.253262
-0.112248
-0.0830552
-0.195359
-0.462165
-0.87793
-1.41889
-2.04569
-2.70828
-3.35249
-3.92792
-4.39627
-4.7395
-4.96679
-5.11972
-5.27461
-5.54139
-6.05816
-6.98137
-8.47185
-10.6777
-13.7157
-17.6532
-22.4934
-28.1653
-34.5208
-41.3396
-48.3416
-55.2054
-61.5924
-67.1724
-71.6486
-74.7795
-76.3954
-76.4076
-74.8106
-71.6773
-67.1487
-61.4198
-54.7237
-47.3152
-39.4562
-31.4023
-23.3929
-15.6423
-8.33474
-1.62058
4.38417
9.59479
13.9493
17.3923
19.8483
21.1834
21.1556
19.3583
15.1675
7.70809
-4.14379
-21.7019
-46.3443
-79.3168
-121.481
-173.034
-233.244
-300.253
-370.997
-441.291
-506.081
-559.879
-597.32
-613.789
-606.03
-572.643
-514.407
-434.346
-337.536
-230.66
-121.355
-17.4379
73.8952
146.799
197.348
223.872
227.036
209.649
176.245
132.494
84.5243
38.2313
-1.3278
-30.4037
-46.8364
-50.1317
-41.3415
-22.7776
2.39104
30.601
58.355
82.6268
101.168
112.689
116.903
114.45
106.707
95.5318
82.9761
71
61.2289
54.7773
52.1542
53.254
57.4268
63.6098
70.499
76.7348
81.0778
82.5547
80.5584
74.8958
65.7818
53.7853
39.7379
24.6184
9.42935
-4.92119
-17.7192
-28.5164
-37.1691
-43.8405
-48.971
-53.2187
-57.3801
-62.2978
-68.7673
-77.4517
-88.8133
-103.069
-120.171
-139.82
-161.501
-184.532
-208.14
-231.523
-253.915
-274.641
-293.146
-309.01
-321.943
-331.765
-338.375
-341.72
-341.769
-338.492
-331.865
-321.873
-308.542
-291.963
-272.334
-249.979
-225.363
-199.097
-171.907
-144.604
-118.029
-92.9928
-70.2142
-50.2673
-33.5397
-20.2086
-10.2381
-3.39577
0.71309
2.59814
2.82989
1.98471
0.594757
-0.892051
-2.13901
-2.93291
-3.18195
-2.90123
-2.18894
-1.19707
-0.100616
0.930921
1.75673
2.28062
2.45877
2.29939
1.85556
1.21304
0.475124
-0.252878
-0.877749
-1.32924
-1.56675
-1.58146
-1.39406
-1.04904
-0.606395
-0.132368
0.309685
0.667065
0.903313
1.00113
0.962572
0.806719
0.565497
0.278268
-0.0139267
-0.273733
-0.47181
-0.589693
-0.62097
-0.570822
-0.454141
-0.292612
-0.111209
0.0654662
0.216649
0.328445
0.396277
0.426603
0.437743
0.459578
0.531905
0.701311
1.01664
1.52341
2.25774
3.2406
4.47321
5.93421
7.57919
9.34255
11.1416
12.8825
14.4669
15.7991
16.7926
17.3753
17.494
17.1168
16.2336
14.8555
13.013
10.753
8.13565
5.23158
2.11958
-1.11407
-4.37518
-7.56028
-10.5551
-13.2336
-15.4595
-17.0893
-17.9786
-17.991
-17.0078
-14.938
-11.7272
-7.36355
-1.8815
4.6384
12.072
20.2568
28.9981
38.0777
47.2616
56.3096
64.9851
73.0647
80.349
86.6716
91.9079
95.9808
98.8638
100.579
101.192
100.803
99.5315
97.5061
94.8477
91.6587
88.0139
83.956
79.4965
74.6211
69.2986
63.4941
57.1826
50.3621
43.0648
35.3641
27.3759
19.2549
11.1842
3.3612
-4.02004
-10.7862
-16.8002
-21.9715
-26.2597
-29.6696
-32.2395
-34.0231
-35.0688
-35.4003
-35.0019
-33.8126
-31.73
-28.6252
-24.3663
-18.8473
-12.0182
-3.91108
5.34238
15.504
26.2349
37.112
47.6513
57.3317
65.6125
71.9363
75.7159
76.3025
72.9463
64.7622
50.7211
29.6901
0.537004
-37.6929
-85.5368
-142.841
-208.496
-280.249
-354.63
-427.068
-492.187
-544.297
-578.011
-588.919
-574.222
-533.217
-467.56
-381.245
-280.288
-172.154
-64.9796
33.2858
115.727
177.182
214.737
227.955
218.798
191.281
150.898
103.917
56.62
14.601
-17.8084
-37.9167
-44.8255
-39.3548
-23.7672
-1.34267
24.1333
48.8945
69.6674
84.0379
90.6749
89.3956
81.0793
67.4529
50.7883
33.5555
18.0807
6.25099
-0.700786
-2.31122
1.10539
8.54727
18.4951
29.1337
38.5942
45.1848
47.5832
44.9705
37.0942
24.2605
7.25998
-12.7571
-34.4378
-56.3956
-77.3686
-96.3519
-112.688
-126.108
-136.729
-144.996
-151.601
-157.373
-163.158
-169.715
-177.624
-187.223
-198.578
-211.494
-225.545
-240.136
-254.578
-268.161
-280.236
-290.261
-297.851
-302.785
-305.001
-304.567
-301.641
-296.421
-289.099
-279.821
-268.668
-255.649
-240.719
-223.815
-204.901
-184.019
-161.34
-137.191
-112.066
-86.6127
-61.59
-37.8065
-16.046
3.00965
18.8497
31.1858
39.979
45.4379
47.9902
48.23
46.8502
44.5673
42.0486
39.8504
38.374
37.842
38.2974
39.6215
41.5684
43.8088
45.9776
47.7204
48.7332
48.7918
47.7705
45.6477
42.5012
38.4929
33.8475
28.8265
23.7006
18.7249
14.1165
10.0397
6.59599
3.82272
1.69748
0.148004
-0.934053
-1.67748
-2.21572
-2.67252
-3.15034
-3.7223
-4.428
-5.27315
-6.2326
-7.25612
-8.27614
-9.21643
-10.0011
-10.5626
-10.8487
-10.8272
-10.4882
-9.84406
-8.92694
-7.78412
-6.47229
-5.05116
-3.57743
-2.09979
-0.655692
0.729949
2.04404
3.28297
4.44917
5.54734
6.581
7.54983
8.44829
9.26547
9.98601
10.5919
11.0646
11.387
11.5452
11.5296
11.3351
10.9605
10.4075
9.67888
8.77555
7.69413
6.42379
4.9437
3.22139
1.21259
-1.13694
-3.88731
-7.09816
-10.8206
-15.0876
-19.9051
-25.2426
-31.0272
-37.1399
-43.4156
-49.6476
-55.5962
-61.0008
-65.5955
-69.126
-71.3675
-72.1417
-71.3315
-68.8924
-64.8593
-59.3482
-52.5513
-44.7276
-36.1866
-27.2696
-18.3283
-9.70244
-1.7004
5.41585
11.4391
16.2155
19.6304
21.5797
21.9255
20.4385
16.7344
10.2179
0.0511244
-14.8325
-35.651
-63.6245
-99.7565
-144.566
-197.809
-258.235
-323.441
-389.862
-452.941
-507.472
-548.113
-569.99
-569.329
-544.019
-494.025
-421.564
-331.022
-228.594
-121.692
-18.1919
74.3919
149.691
203.135
232.383
237.495
220.823
186.641
140.582
88.9496
37.9894
-6.7761
-41.0888
-62.308
-69.5491
-63.6084
-46.699
-22.0447
6.60515
35.4773
61.2276
81.2971
94.1348
99.2736
97.2639
89.4866
77.8801
64.6252
51.8296
41.2531
34.1041
30.9256
31.5785
35.3145
40.921
46.9148
51.7548
54.0457
52.7076
47.0934
37.0434
22.8756
5.31822
-14.6025
-35.7023
-56.7871
-76.7915
-94.8927
-110.587
-123.723
-134.495
-143.394
-151.129
-158.524
-166.418
-175.558
-186.509
-199.593
-214.853
-232.05
-250.688
-270.067
-289.359
-307.681
-324.181
-338.103
-348.838
-355.957
-359.214
-358.533
-353.982
-345.733
-334.031
-319.161
-301.427
-281.142
-258.631
-234.241
-208.359
-181.427
-153.955
-126.519
-99.7569
-74.3367
-50.9237
-30.1318
-12.4739
1.68656
12.1732
19.0199
22.474
22.979
21.1376
17.6587
13.2937
8.7706
4.73157
1.6816
-0.0465435
-0.308229
0.857508
3.25102
6.55018
10.3585
14.2571
17.8545
20.8289
22.9583
24.1369
24.3757
23.7901
22.5757
20.9771
19.2539
17.6481
16.3565
15.5118
15.1729
15.3254
15.8906
16.7423
17.7264
18.6828
19.4652
19.9573
20.0833
19.8122
19.1565
18.165
16.9128
15.4887
13.9832
12.4775
11.0356
9.69977
8.48967
7.40467
6.42883
5.53728
4.7031
3.90336
3.12376
2.36118
1.6239
0.929847
0.303116
-0.230381
-0.647519
-0.93204
-1.07753
-1.08891
-0.982283
-0.783298
-0.524218
-0.240308
0.0340061
0.268588
0.440173
0.533737
0.542509
0.466723
0.31141
0.0836566
-0.210155
-0.566663
-0.98701
-1.47723
-2.04747
-2.71011
-3.47705
-4.35677
-5.35162
-6.45604
-7.6564
-8.93256
-10.2612
-11.6208
-12.9967
-14.386
-15.8015
-17.2731
-18.8463
-20.58
-22.5407
-24.7982
-27.4206
-30.4706
-34.0043
-38.0693
-42.7042
-47.9361
-53.7764
-60.2144
-67.2095
-74.6828
-82.5097
-90.5163
-98.4797
-106.134
-113.181
-119.306
-124.198
-127.567
-129.164
-128.795
-126.339
-121.747
-115.054
-106.373
-95.892
-83.8651
-70.6021
-56.4544
-41.7991
-27.0231
-12.5083
1.3795
14.2929
25.8947
35.8348
43.7132
49.033
51.152
49.248
42.3124
29.1923
8.68926
-20.278
-58.4595
-106.029
-162.344
-225.76
-293.537
-361.879
-426.139
-481.175
-521.835
-543.527
-542.788
-517.785
-468.66
-397.671
-309.083
-208.819
-103.908
-1.78598
90.4608
166.81
222.896
256.407
267.238
257.397
230.675
192.135
147.487
102.432
62.0505
30.3067
9.72392
1.24886
4.31197
17.059
36.7107
59.9967
83.6028
104.577
120.65
130.431
133.482
130.255
121.932
110.179
96.8719
83.8176
72.5165
63.9883
58.6792
56.4562
56.679
58.3352
60.212
61.0813
59.8701
55.7965
48.4565
37.8538
24.3743
8.71379
-8.22971
-25.4804
-42.1104
-57.3493
-70.6658
-81.8136
-90.8366
-98.0385
-103.921
-109.101
-114.223
-119.869
-126.483
-134.327
-143.451
-153.697
-164.733
-176.1
-187.276
-197.742
-207.039
-214.817
-220.86
-225.091
-227.559
-228.402
-227.811
-225.975
-223.04
-219.079
-214.068
-207.89
-200.355
-191.225
-180.263
-167.277
-152.159
-134.927
-115.744
-94.9272
-72.9403
-50.3704
-27.8902
-6.21222
13.9643
32.0046
47.3858
59.7328
68.8417
74.6868
77.412
77.3081
74.7791
70.3017
64.3833
57.5218
50.1726
42.724
35.4824
28.6682
22.4189
16.7994
11.8164
7.43308
3.58476
0.19156
-2.83126
-5.56607
-8.08831
-10.464
-12.7489
-14.9876
-17.214
-19.4505
-21.7077
-23.9838
-26.2638
-28.5204
-30.7141
-32.7962
-34.7111
-36.4011
-37.8107
-38.8915
-39.6058
-39.93
-39.8548
-39.3853
-38.5386
-37.3406
-35.8226
-34.0176
-31.9582
-29.6753
-27.1982
-24.5564
-21.7818
-18.9117
-15.9912
-13.0746
-10.2248
-7.51156
-5.00728
-2.78164
-0.895367
0.605882
1.69673
2.37554
2.66555
2.61343
2.28539
1.76121
1.12688
0.46677
-0.143805
-0.644752
-0.995423
-1.17643
-1.18885
-1.051
-0.793107
-0.450511
-0.0564128
0.36507
0.804465
1.27035
1.78994
2.40656
3.174
4.14827
5.37762
6.89206
8.69404
10.7515
12.9951
15.3192
17.5889
19.6504
21.3446
22.5224
23.0597
22.8698
21.9138
20.206
17.8167
14.8718
11.5498
8.07735
4.72268
1.7866
-0.40933
-1.53822
-1.28694
0.621824
4.40542
10.197
18.0229
27.7856
39.2527
52.0574
65.7104
79.625
93.153
105.628
116.412
124.934
130.719
133.391
132.664
128.291
120.017
107.511
90.3223
67.873
39.4972
4.55316
-37.4044
-86.4025
-141.812
-202.136
-264.882
-326.551
-382.787
-428.703
-459.34
-470.244
-458.057
-421.053
-359.527
-275.966
-174.961
-62.8474
52.873
164.283
263.862
345.268
403.975
437.706
446.592
433.054
401.434
357.411
307.311
257.374
213.079
178.608
156.498
147.516
150.743
163.857
183.557
206.056
227.597
244.909
255.564
258.196
252.575
239.525
220.732
198.45
175.169
153.281
134.785
121.06
112.737
109.67
111.011
115.355
120.958
125.969
128.668
127.667
122.058
111.491
96.1825
76.8521
54.6052
30.7785
6.77078
-16.1196
-36.8315
-54.6367
-69.1884
-80.5197
-88.9994
-95.2526
-100.061
-104.258
-108.621
-113.793
-120.217
-128.105
-137.428
-147.942
-159.221
-170.721
-181.831
-191.938
-200.478
-206.97
-211.045
-212.446
-211.024
-206.716
-199.518
-189.458
-176.571
-160.888
-142.435
-121.241
-97.373
-70.9596
-42.233
-11.5577
20.5495
53.416
86.2296
118.073
147.979
174.99
198.233
216.983
230.721
239.169
242.311
240.384
233.853
223.361
209.677
193.626
176.037
157.681
139.236
121.256
104.165
88.2523
73.6928
60.5632
48.8671
38.5575
29.5571
21.7729
15.1052
9.45206
4.70934
0.768104
-2.48817
-5.1858
-7.46114
-9.4582
-11.3237
-13.2001
-15.2161
-17.4777
-20.0583
-22.9909
-26.2626
-29.8122
-33.5334
-37.281
-40.8831
-44.1568
-46.9256
-49.0388
-50.3885
-50.9234
-50.6571
-49.6695
-48.1005
-46.136
-43.9881
-41.8696
-39.9678
-38.4187
-37.2848
-36.5411
-36.07
-35.6663
-35.0551
-33.9184
-31.9302
-28.7954
-24.2885
-18.287
-10.7946
-1.95204
7.96742
18.5775
29.4112
39.9633
49.7374
58.293
65.2861
70.5003
73.8631
75.4469
75.4535
74.1852
72.0056
69.2951
66.4059
63.6236
61.1376
59.0264
57.256
55.6936
54.1328
52.3271
50.027
47.0152
43.1365
38.3177
32.5765
26.0185
18.8257
11.2368
3.52515
-4.02252
-11.1249
-17.519
-22.9675
-27.2609
-30.2163
-31.6755
-31.5049
-29.5987
-25.8876
-20.3512
-13.0322
-4.05018
6.38882
17.9909
30.3821
43.1263
55.7519
67.7841
78.7762
88.3357
96.1352
101.905
105.399
106.343
104.356
98.8787
89.1142
74.0089
52.3036
22.6655
-16.0948
-64.7374
-123.275
-190.677
-264.663
-341.64
-416.835
-484.631
-539.096
-574.634
-586.691
-572.396
-531.047
-464.366
-376.455
-273.467
-163.011
-53.3728
47.3505
132.098
195.56
234.675
248.856
239.93
211.8
169.898
120.491
69.9429
24.0204
-12.6813
-37.1307
-48.0384
-45.8203
-32.3669
-10.6656
15.6658
42.8708
67.5088
86.8228
98.9857
103.208
99.7106
89.578
74.5282
56.6307
38.0166
20.6151
5.94536
-5.01821
-11.8985
-14.8901
-14.6675
-12.2456
-8.81445
-5.57151
-3.57157
-3.61045
-6.15297
-11.3093
-18.8572
-28.3038
-38.9735
-50.1114
-60.986
-70.9793
-79.6555
-86.8004
-92.4307
-96.7734
-100.221
-103.267
-106.437
-110.215
-114.979
-120.951
-128.175
-136.503
-145.612
-155.042
-164.234
-172.588
-179.516
-184.484
-187.052
-186.895
-183.814
-177.74
-168.731
-156.966
-142.736
-126.438
-108.563
-89.6757
-70.3889
-51.3251
-33.0727
-16.1386
-0.903842
12.41
23.7587
33.2725
41.2332
48.032
54.115
59.9231
65.8344
72.1173
78.8999
86.1589
93.729
101.33
108.608
115.18
120.686
124.828
127.404
128.325
127.621
125.427
121.967
117.52
112.389
106.872
101.23
95.6706
90.3369
85.3036
80.5848
76.1466
71.9232
67.835
63.8048
59.7715
55.6986
51.5776
47.4275
43.2888
39.2161
35.2686
31.501
27.9561
24.6592
21.6161
18.813
16.2196
13.7947
11.4919
9.26684
7.08288
4.9162
2.75864
0.61856
-1.48054
-3.50326
-5.40687
-7.14667
-8.68135
-9.97777
-11.0147
-11.7855
-12.2985
-12.5774
-12.6592
-12.5921
-12.4324
-12.2411
-12.0811
-12.0137
-12.0973
-12.3847
-12.923
-13.7534
-14.9121
-16.4314
-18.3409
-20.6688
-23.4407
-26.6782
-30.3943
-34.5884
-39.2398
-44.3018
-49.6971
-55.3149
-61.0108
-66.6089
-71.9055
-76.6757
-80.6801
-83.6744
-85.42
-85.6976
-84.322
-81.1594
-76.1449
-69.2982
-60.7353
-50.674
-39.4306
-27.4067
-15.0663
-2.90504
8.58475
18.9476
27.7895
34.7861
39.6681
42.1809
42.0209
38.7571
31.7558
20.1314
2.74759
-21.7082
-54.5635
-96.9173
-149.335
-211.528
-282.068
-358.216
-435.902
-509.921
-574.324
-623
-650.364
-652.072
-625.655
-570.972
-490.397
-388.723
-272.749
-150.626
-31.0236
77.7702
168.701
236.648
278.894
295.296
288.172
261.903
222.332
176.035
129.547
88.6636
57.8666
39.9561
35.9024
44.9239
64.7618
92.1012
123.076
153.79
180.786
201.418
214.082
218.296
214.631
204.519
189.968
173.234
156.501
141.595
129.779
121.645
117.107
115.478
115.628
116.18
115.711
112.95
106.92
97.0327
83.1175
65.3976
44.4141
20.9223
-4.22661
-30.1997
-56.2778
-81.922
-106.805
-130.808
-153.984
-176.501
-198.575
-220.391
-242.047
-263.508
-284.579
-304.915
-324.04
-341.398
-356.408
-368.521
-377.284
-382.377
-383.64
-381.084
-374.869
-365.277
-352.667
-337.421
-319.904
-300.418
-279.181
-256.313
-231.848
-205.757
-177.982
-148.476
-117.256
-84.4349
-50.2569
-15.1135
20.4561
55.7839
90.108
122.623
152.541
179.15
201.875
220.323
234.312
243.878
249.262
250.874
249.243
244.956
238.598
230.7
221.69
211.875
201.429
190.408
178.768
166.4
153.162
138.908
123.512
106.878
88.9465
69.6952
49.1337
27.3028
4.27761
-19.824
-44.8293
-70.4963
-96.5024
-122.44
-147.82
-172.091
-194.665
-214.951
-232.397
-246.531
-256.992
-263.559
-266.164
-264.898
-260
-251.84
-240.891
-227.698
-212.843
-196.913
-180.464
-163.999
-147.939
-132.609
-118.228
-104.908
-92.6624
-81.4168
-71.0339
-61.3375
-52.1406
-43.272
-34.5988
-26.0424
-17.5856
-9.2714
-1.19288
6.52372
13.7405
20.331
26.2028
31.3164
35.6986
39.4505
42.7466
45.8276
48.986
52.5454
56.8347
62.159
68.7699
76.8376
86.4271
97.4837
109.828
123.163
137.094
151.158
164.862
177.714
189.256
199.075
206.794
212.039
214.385
213.286
208.016
197.631
180.985
156.811
123.883
81.2556
28.552
-33.7426
-104.032
-179.471
-255.993
-328.524
-391.4
-438.939
-466.1
-469.145
-446.204
-397.642
-326.174
-236.692
-135.811
-31.202
69.2248
158.161
229.666
279.762
306.779
311.42
296.544
266.709
227.546
185.044
144.843
111.624
88.6609
77.5755
78.3185
89.35
107.988
130.862
154.41
175.344
191.032
199.761
200.838
194.56
182.049
164.993
145.351
125.043
105.687
88.4068
73.7224
61.5412
51.2287
41.748
31.8391
20.2127
5.73043
-12.4478
-34.7659
-61.2296
-91.4198
-124.556
-159.597
-195.364
-230.675
-264.464
-295.891
-324.406
-349.792
-372.158
-391.9
-409.635
-426.11
-442.103
-458.32
-475.308
-493.378
-512.566
-532.606
-552.945
-572.779
-591.115
-606.851
-618.867
-626.11
-627.684
-622.919
-611.42
-593.092
-568.144
-537.067
-500.588
-459.618
-415.192
-368.414
-320.408
-272.279
-225.086
-179.826
-137.416
-98.6743
-64.3036
-34.8633
-10.7408
7.87609
21.022
28.9641
32.1973
31.4194
27.4878
21.3603
14.0243
6.42264
-0.616334
-6.43718
-10.5975
-12.8858
-13.3164
-12.1021
-9.6089
-6.29903
-2.66923
0.808807
3.73904
5.83793
6.95452
7.0731
6.29968
4.83563
2.94286
0.905616
-1.00579
-2.56508
-3.61033
-4.05301
-3.8757
-3.12036
-1.87015
-0.228647
1.69967
3.82474
6.07995
8.42417
10.8378
13.3143
15.8499
18.434
21.0421
23.6341
26.157
28.5526
30.7682
32.7688
34.5474
36.1319
37.586
39.0041
40.4995
42.1871
44.1629
46.4823
49.1402
52.056
55.0653
57.9206
60.3023
61.8379
62.1316
60.7974
57.4963
51.9714
44.0778
33.8045
21.2856
6.80045
-9.23659
-26.2943
-43.7485
-60.9086
-77.0469
-91.4297
-103.353
-112.179
-117.388
-118.616
-115.704
-108.735
-98.0493
-84.2438
-68.1436
-50.7466
-33.1465
-16.4408
-1.63333
10.4567
19.271
24.5672
26.4525
25.4012
22.2598
18.2459
14.9368
14.2385
18.3205
29.5006
50.0724
82.0783
127.048
185.733
257.885
342.113
435.86
535.516
636.674
734.497
824.161
901.32
962.526
1005.56
1029.63
1035.39
1024.84
1001.03
967.69
928.842
888.34
849.52
814.913
786.087
763.605
747.103
735.465
727.053
719.977
712.352
702.519
689.21
671.64
649.537
623.095
592.889
559.756
524.665
488.589
452.403
416.811
382.297
349.124
317.345
286.846
257.409
228.773
200.706
173.06
145.823
119.14
93.3186
68.8048
46.1403
25.9011
8.62781
-5.24422
-15.445
-21.913
-24.815
-24.5394
-21.6653
-16.9095
-11.0591
-4.89823
0.863641
5.65153
9.06819
10.9158
11.1946
10.0813
7.88902
5.01726
1.89611
-1.0667
-3.53101
-5.25663
-6.12067
-6.119
-5.35346
-4.00763
-2.31541
-0.526791
1.12452
2.44809
3.31543
3.66907
3.52191
2.94783
2.06591
1.02065
-0.0388636
-0.977995
-1.69186
-2.11521
-2.22631
-2.04497
-1.62556
-1.0465
-0.397825
0.231367
0.763995
1.14339
1.3382
1.34368
1.17936
0.884076
0.50896
0.109742
-0.260765
-0.558994
-0.755112
-0.835312
-0.80184
-0.671006
-0.469631
-0.230558
0.0121204
0.227485
0.391341
0.488546
0.51395
0.471989
0.375097
0.241301
0.0913542
-0.0541629
-0.177413
-0.265256
-0.310401
-0.311702
-0.273652
-0.205216
-0.118229
-0.0256054
0.0604059
0.129686
0.175298
0.194015
0.186339
0.156037
0.109325
0.0538193
-0.00256333
-0.0526375
-0.0907742
-0.113443
-0.119436
-0.109768
-0.0873195
-0.0562701
-0.021439
0.012391
0.0410706
0.0615392
0.0720926
0.0724458
0.0635692
0.047237
0.0251125
-0.00294989
-0.0417807
-0.105213
-0.221698
-0.440466
-0.836819
-1.51472
-2.60482
-4.25656
-6.62383
-9.84512
-14.02
-19.1856
-25.2957
-32.2084
-39.6822
-47.3855
-54.9174
-61.8399
-67.7179
-72.1669
-74.9044
-75.8056
-74.9608
-72.7329
-69.8087
-67.2347
-66.4229
-69.1112
-77.2634
-92.8988
-117.855
-153.497
-200.407
-258.098
-324.798
-397.376
-471.424
-541.535
-601.764
-646.224
-669.755
-668.573
-640.819
-586.899
-509.583
-413.826
-306.318
-194.826
-87.3994
8.45191
86.5204
142.497
174.341
182.38
169.146
138.967
97.3834
50.4703
4.13918
-36.4828
-67.5366
-86.727
-93.4119
-88.4906
-74.1227
-53.327
-29.5197
-6.05521
14.1759
29.048
37.3733
38.94
34.4243
25.2016
13.0912
0.0735253
-11.9809
-21.5388
-27.5626
-29.5898
-27.7283
-22.5815
-15.1174
-6.50508
2.05626
9.49406
14.9864
18.0409
18.5234
16.6378
12.8654
7.87558
2.42131
-2.76426
-7.05824
-10.015
-11.4037
-11.2148
-9.63827
-7.01834
-3.79425
-0.434827
2.62353
5.02838
6.54667
7.08142
6.6696
5.46324
3.69817
1.6555
-0.378548
-2.14917
-3.4617
-4.1997
-4.33132
-3.90436
-3.03178
-1.8706
-0.597455
0.615655
1.62255
2.31848
2.64895
2.61118
2.24901
1.64244
0.893704
0.112059
-0.600686
-1.1622
-1.51792
-1.64494
-1.55158
-1.27297
-0.863828
-0.389473
0.0835057
0.495761
0.801887
0.974644
1.00646
0.908307
0.706321
0.436935
0.141191
-0.140912
-0.375339
-0.537664
-0.615123
-0.606983
-0.523358
-0.38278
-0.208978
-0.0273432
0.138447
0.26922
0.352245
0.38215
0.360834
0.296507
0.202166
0.0938746
-0.0106932
-0.0930796
-0.134047
-0.112836
-0.00606448
0.213155
0.575261
1.11302
1.85892
2.84153
4.08126
5.58636
7.34982
9.34755
11.5381
13.8642
16.2551
18.6313
20.9091
23.006
24.8472
26.3703
27.531
28.3058
28.6941
28.7175
28.4168
27.8468
27.0687
26.1423
25.1174
24.0272
22.8837
21.6764
20.3753
18.9371
17.3141
15.4655
13.368
11.0271
8.48418
5.82229
3.16647
0.680196
-1.44302
-2.99242
-3.75631
-3.54041
-2.18657
0.410396
4.28953
9.41585
15.6786
22.8956
30.8242
39.1749
47.6303
55.8621
63.5484
70.3861
76.0959
80.4171
83.0891
83.8169
82.2226
77.7895
69.8094
57.3535
39.285
14.3349
-18.7489
-60.9804
-112.861
-174.091
-243.312
-317.955
-394.223
-467.269
-531.557
-581.394
-611.559
-617.965
-598.237
-552.14
-481.758
-391.416
-287.312
-176.927
-68.2623
30.9863
114.219
176.587
215.435
230.479
223.712
199.051
161.796
117.957
73.5522
33.9553
3.36854
-15.5258
-21.7083
-15.7581
0.392976
23.8425
51.1784
78.954
104.118
124.351
138.268
145.487
146.552
142.74
135.794
127.61
119.938
114.121
110.916
110.408
112.026
114.65
116.793
116.831
113.234
104.796
90.8012
71.127
46.2713
17.2946
-14.3052
-46.7712
-78.2928
-107.214
-132.219
-152.469
-167.68
-178.136
-184.628
-188.337
-190.675
-193.099
-196.935
-203.212
-212.55
-225.095
-240.517
-258.067
-276.676
-295.097
-312.047
-326.351
-337.062
-343.537
-345.477
-342.913
-336.162
-325.742
-312.285
-296.442
-278.805
-259.848
-239.905
-219.165
-197.705
-175.534
-152.648
-129.087
-104.978
-80.5629
-56.2076
-32.3845
-9.63795
11.4642
30.3869
46.6826
60.0372
70.3021
77.5082
81.8594
83.7095
83.5234
81.8293
79.167
76.0396
72.8727
69.986
67.5793
65.7331
64.4214
63.5356
62.9129
62.3675
61.7189
60.8151
59.5493
57.8664
55.7633
53.281
50.4921
47.4861
44.3546
41.1789
38.0216
34.9227
31.9006
28.957
26.0836
23.2706
20.5136
17.8188
15.2055
12.7048
10.3566
8.20417
6.28802
4.63988
3.27817
2.20523
1.40673
0.853122
0.502774
0.305935
0.208953
0.158066
0.102328
-0.00457182
-0.203688
-0.531285
-1.02013
-1.70119
-2.60519
-3.76351
-5.20798
-6.96937
-9.07463
-11.5431
-14.3825
-17.5841
-21.1199
-24.9401
-28.9733
-33.1292
-37.3047
-41.3928
-45.2937
-48.9268
-52.2423
-55.2298
-57.9226
-60.3959
-62.7594
-65.1423
-67.6743
-70.462
-73.5663
-76.9813
-80.6204
-84.3106
-87.7979
-90.7643
-92.8547
-93.712
-93.0158
-90.5212
-86.0927
-79.7274
-71.5668
-61.8917
-51.1031
-39.6885
-28.1784
-17.0992
-6.92925
1.93294
9.18024
14.5815
17.9364
19.0035
17.4105
12.5653
3.58956
-10.6974
-31.7214
-61.0062
-99.9363
-149.447
-209.678
-279.656
-357.059
-438.135
-517.827
-590.111
-648.542
-686.943
-700.164
-684.781
-639.658
-566.259
-468.655
-353.22
-228.039
-102.09
15.6816
117.288
196.51
249.488
275.031
274.612
252.065
213.026
164.208
112.597
64.6767
25.7588
-0.489862
-12.2988
-9.80265
5.17231
29.4992
59.2579
90.2871
118.711
141.376
156.162
162.126
159.492
149.491
134.097
115.683
96.6752
79.2232
64.9473
54.778
48.9041
46.8236
47.481
49.464
51.2268
51.3072
48.5102
42.0358
31.5426
17.1432
-0.656909
-21.0642
-43.1257
-65.8617
-88.3842
-109.989
-130.208
-148.829
-165.873
-181.544
-196.165
-210.099
-223.678
-237.145
-250.615
-264.059
-277.313
-290.104
-302.093
-312.926
-322.278
-329.901
-335.644
-339.463
-341.411
-341.604
-340.18
-337.252
-332.862
-326.946
-319.323
-309.704
-297.732
-283.03
-265.285
-244.316
-220.151
-193.077
-163.665
-132.759
-101.422
-70.8583
-42.2995
-16.8875
4.44406
21.0661
32.7191
39.5363
42.0224
40.9908
37.4682
32.5777
27.4175
22.9473
19.8984
18.715
19.5331
22.1963
26.3038
31.2829
36.4746
41.2209
44.9439
47.2073
47.7554
46.5268
43.6442
39.3837
34.13
28.3242
22.4113
16.7934
11.7936
7.63368
4.42565
2.17739
0.808508
0.17385
0.0903761
0.363836
0.812133
1.28322
1.66637
1.89666
1.95333
1.85321
1.64092
1.37726
1.12752
0.9508
0.891432
0.972956
1.19508
1.53357
1.94278
2.36049
2.71436
2.92937
2.93545
2.6744
2.10538
1.20806
-0.0168688
-1.5502
-3.35952
-5.40679
-7.65749
-10.0901
-12.7045
-15.5283
-18.6189
-22.0603
-25.9539
-30.4022
-35.4872
-41.2458
-47.645
-54.5615
-61.7705
-68.9471
-75.6821
-81.5121
-85.9619
-88.5933
-89.0568
-87.1368
-82.7869
-76.1474
-67.544
-57.4656
-46.522
-35.3879
-24.7378
-15.1809
-7.20615
-1.14624
2.83082
4.69739
4.50836
2.31506
-1.93648
-8.50376
-17.9182
-31.002
-48.8103
-72.4865
-103.035
-141.037
-186.346
-237.824
-293.186
-348.983
-400.796
-443.596
-472.284
-482.313
-470.323
-434.683
-375.856
-296.519
-201.415
-96.9224
9.56953
110.44
198.643
268.447
316.011
339.736
340.337
320.658
285.244
239.744
190.229
142.497
101.472
70.7385
52.2789
46.4122
51.9345
66.424
86.6594
109.092
130.312
147.443
158.443
162.262
158.863
149.117
134.592
117.269
99.245
82.4389
68.3541
57.9171
51.406
48.4717
48.238
49.4644
50.7413
50.6926
48.1567
42.3258
32.8281
19.7469
3.57899
-14.8565
-34.5453
-54.421
-73.5034
-91.0166
-106.471
-119.7
-130.857
-140.361
-148.821
-156.936
-165.387
-174.753
-185.427
-197.581
-211.145
-225.827
-241.15
-256.509
-271.235
-284.655
-296.149
-305.185
-311.344
-314.328
-313.953
-310.129
-302.85
-292.168
-278.187
-261.056
-240.974
-218.197
-193.052
-165.94
-137.344
-107.823
-77.9941
-48.5098
-20.0246
6.84256
31.5466
53.6504
72.8514
88.9972
102.088
112.267
119.794
125.018
128.338
130.158
130.86
130.766
130.123
129.09
127.742
126.079
124.046
121.556
118.513
114.828
110.442
105.325
99.4762
92.92
85.6911
77.8239
69.3442
60.2653
50.5906
40.3219
29.4712
18.074
6.20021
-6.03866
-18.489
-30.9611
-43.2407
-55.1062
-66.3477
-76.7856
-86.2877
-94.7805
-102.255
-108.766
-114.418
-119.355
-123.732
-127.692
-131.34
-134.719
-137.796
-140.459
-142.518
-143.73
-143.821
-142.524
-139.617
-134.956
-128.499
-120.324
-110.628
-99.7127
-87.9571
-75.7869
-63.6347
-51.9021
-40.924
-30.9383
-22.0596
-14.2616
-7.36851
-1.0581
5.12038
11.7121
19.3067
28.4743
39.6952
53.2909
69.3682
87.7883
108.168
129.916
152.31
174.584
196.036
216.118
234.49
251.033
265.795
278.893
290.363
300.012
307.282
311.186
310.331
303.066
287.736
263.03
228.358
184.2
132.346
75.9677
19.4718
-31.8673
-72.4628
-97.0924
-101.6
-83.5176
-42.5032
19.4713
98.2279
187.775
280.938
370.143
448.25
509.328
549.267
566.157
560.396
534.519
492.787
440.601
383.823
328.092
278.223
237.753
208.682
191.422
184.937
187.049
194.845
205.122
214.828
221.414
223.093
218.962
208.998
193.938
175.078
154.022
132.424
111.763
93.1671
77.3176
64.4301
54.303
46.4201
40.0818
34.5415
29.123
23.3042
16.7572
9.34454
1.08113
-7.92824
-17.5578
-27.7222
-38.4183
-49.7397
-61.8626
-75.0073
-89.3823
-105.124
-122.244
-140.589
-159.832
-179.485
-198.946
-217.552
-234.663
-249.728
-262.347
-272.318
-279.647
-284.538
-287.356
-288.565
-288.657
-288.075
-287.144
-286.012
-284.617
-282.677
-279.71
-275.081
-268.069
-257.955
-244.111
-226.089
-203.694
-177.035
-146.548
-112.986
-77.373
-40.9354
-5.00352
29.0952
60.1469
87.1525
109.408
126.556
138.605
145.91
149.122
149.11
146.866
143.399
139.64
136.352
134.073
133.079
133.383
134.757
136.788
138.939
140.632
141.317
140.541
137.998
133.555
127.261
119.331
110.115
100.057
89.6408
79.3436
69.5887
60.7094
52.9236
46.3229
40.8736
36.4311
32.7628
29.578
26.5604
23.3997
19.8193
15.5975
10.5791
4.67937
-2.12147
-9.79023
-18.2569
-27.4317
-37.2194
-47.5287
-58.2749
-69.3751
-80.7383
-92.2515
-103.767
-115.091
-125.984
-136.162
-145.315
-153.13
-159.32
-163.656
-165.996
-166.311
-164.694
-161.368
-156.67
-151.03
-144.932
-138.878
-133.335
-128.697
-125.238
-123.086
-122.208
-122.406
-123.335
-124.536
-125.474
-125.594
-124.368
-121.345
-116.186
-108.691
-98.8046
-86.6106
-72.3086
-56.1831
-38.5673
-19.8065
-0.227229
19.8832
40.2865
60.7892
81.229
101.451
121.285
140.517
158.876
176.025
191.569
205.073
216.096
224.232
229.154
230.658
228.694
223.385
215.009
203.969
190.726
175.712
159.243
141.434
122.145
100.976
77.3165
50.4666
19.8063
-14.9935
-53.7548
-95.6073
-138.874
-181.064
-218.991
-249.03
-267.485
-271.031
-257.182
-224.698
-173.889
-106.744
-26.865
60.7976
150.391
235.724
310.895
370.883
412.058
432.524
432.263
413.077
378.322
332.487
280.674
228.035
179.239
138.037
106.953
87.1457
78.4311
79.4532
87.9739
101.233
116.332
130.589
141.829
148.585
150.183
146.728
138.993
128.234
115.97
103.749
92.9329
84.5284
79.0732
76.5931
76.6264
78.3073
80.4951
81.9301
81.3946
77.8615
70.6108
59.3037
44.006
25.1629
3.52876
-19.9359
-44.1854
-68.2138
-91.1664
-112.426
-131.665
-148.857
-164.253
-178.323
-191.671
-204.947
-218.749
-233.54
-249.588
-266.933
-285.378
-304.518
-323.786
-342.523
-360.048
-375.731
-389.051
-399.635
-407.276
-411.923
-413.651
-412.616
-409.01
-403.017
-394.775
-384.367
-371.818
-357.118
-340.248
-321.217
-300.088
-277.006
-252.21
-226.036
-198.908
-171.33
-143.854
-117.067
-91.5535
-67.8747
-46.5338
-27.9503
-12.4332
-0.160512
8.83496
14.6706
17.6085
18.0384
16.451
13.4025
9.47368
5.22844
1.17435
-2.26958
-4.79569
-6.21907
-6.47715
-5.61879
-3.78511
-1.18516
1.9303
5.29394
8.64397
11.7421
14.3869
16.4238
17.7517
18.3276
18.1693
17.3561
16.0273
14.376
12.6406
11.09
10.0064
9.6637
10.3068
12.1312
15.267
19.7692
25.615
32.7088
40.893
49.9651
59.6952
69.845
80.1825
90.4937
100.586
110.29
119.45
127.916
135.535
142.138
147.541
151.542
153.929
154.494
153.051
149.457
143.633
135.583
125.413
113.336
99.6786
84.8711
69.428
53.9221
38.9476
25.0794
12.8298
2.60884
-5.30818
-10.8021
-13.9176
-14.8551
-13.9493
-11.6343
-8.40105
-4.75111
-1.15097
2.00684
4.43295
5.95763
6.53337
6.22392
5.18139
3.61443
1.75118
-0.198079
-2.07395
-3.79189
-5.35361
-6.8441
-8.41425
-10.2514
-12.5417
-15.4305
-18.9856
-23.1703
-27.8298
-32.695
-37.4014
-41.524
-44.6216
-46.2856
-46.1872
-44.1166
-40.009
-33.956
-26.1984
-17.1054
-7.13983
3.18353
13.3424
22.8475
31.2743
38.2784
43.5919
46.9959
48.2681
47.1131
43.0827
35.5077
23.4625
5.78789
-18.809
-51.5691
-93.4211
-144.675
-204.716
-271.77
-342.782
-413.483
-478.65
-532.563
-569.615
-584.995
-575.352
-539.338
-477.941
-394.551
-294.719
-185.658
-75.5071
27.5156
115.986
184.051
228.014
246.663
241.302
215.495
174.559
124.891
73.2023
25.7712
-12.2115
-37.1219
-47.1697
-42.4346
-24.6846
2.98281
36.6215
71.9713
104.978
132.236
151.318
160.941
160.995
152.421
136.978
116.943
94.7776
72.816
53.0027
36.7082
24.6369
16.827
12.7323
11.3662
11.4832
11.7725
11.0368
8.33681
3.08768
-4.9015
-15.443
-28.0342
-41.9568
-56.3952
-70.5583
-83.7861
-95.6314
-105.904
-114.68
-122.268
-129.153
-135.913
-143.128
-151.298
-160.768
-171.678
-183.944
-197.259
-211.134
-224.943
-237.993
-249.594
-259.125
-266.084
-270.13
-271.093
-268.973
-263.918
-256.182
-246.083
-233.96
-220.13
-204.865
-188.382
-170.851
-152.42
-133.247
-113.535
-93.5613
-73.6862
-54.3471
-36.0273
-19.2069
-4.3028
8.39262
18.7618
26.8911
33.0728
37.7754
41.5878
45.1435
49.0357
53.7377
59.5377
66.4994
74.4516
83.0094
91.6216
99.6373
106.385
111.248
113.736
113.539
110.551
104.883
96.8425
86.8997
75.6327
63.6717
51.6384
40.0928
29.4905
20.1542
12.2617
5.84965
0.830517
-2.97899
-5.82302
-7.96887
-9.67042
-11.1365
-12.5068
-13.8374
-15.0974
-16.1756
-16.8978
-17.0515
-16.4161
-14.7954
-12.0491
-8.11913
-3.04899
3.00755
9.78917
16.9421
24.0466
30.652
36.3183
40.6583
43.3763
44.2993
43.3959
40.7807
36.7045
31.5299
25.6959
19.6756
13.9319
8.87505
4.82785
2.00113
0.481498
0.232154
1.1057
2.86689
5.22229
7.85325
10.4486
12.7337
14.4929
15.5842
15.9445
15.5866
14.5882
13.0767
11.2099
9.15654
7.07872
5.11712
3.38085
1.94196
0.834697
0.0586129
-0.415302
-0.636686
-0.667233
-0.572473
-0.414692
-0.24745
-0.111923
-0.0350398
-0.0292667
-0.093791
-0.216805
-0.378555
-0.554775
-0.720124
-0.851267
-0.929342
-0.941712
-0.883061
-0.756042
-0.571861
-0.35133
-0.127337
0.0495579
0.0996969
-0.106543
-0.782398
-2.27224
-5.10928
-10.0729
-18.2276
-30.9209
-49.7161
-76.2435
-111.966
-157.875
-214.159
-279.892
-352.819
-429.297
-504.434
-572.447
-627.22
-662.988
-675.072
-660.548
-618.752
-551.532
-463.194
-360.152
-250.29
-142.152
-44.027
36.923
95.4044
128.498
135.877
119.728
84.3762
35.6987
-19.6123
-74.8299
-123.923
-162.155
-186.481
-195.726
-190.521
-173.046
-146.603
-115.107
-82.5528
-52.5261
-27.8165
-10.1711
-0.2037
2.54272
-0.595375
-7.68523
-16.5269
-24.9811
-31.2531
-34.1011
-32.9481
-27.894
-19.6353
-9.31348
1.68235
11.9275
20.1591
25.4358
27.2408
25.5219
20.6681
13.4306
4.80467
-4.11122
-12.2577
-18.7416
-22.9317
-24.5154
-23.511
-20.2383
-15.2556
-9.27216
-3.05007
2.6913
7.35734
10.5375
12.0367
11.8776
10.2763
7.5967
4.29164
0.838927
-2.31912
-4.82567
-6.44367
-7.07188
-6.7423
-5.60068
-3.87356
-1.82576
0.286838
2.26457
4.00595
5.53952
7.04057
8.82921
11.3478
15.118
20.6815
28.5297
39.0321
52.3715
68.4976
87.1039
107.635
129.323
151.252
172.435
191.911
208.831
222.529
232.584
238.84
241.406
240.624
237.014
231.21
223.884
215.672
207.121
198.644
190.499
182.792
175.495
168.482
161.566
154.551
147.262
139.577
131.447
122.895
114.006
104.913
95.7677
86.7206
77.8961
69.3786
61.2065
53.3741
45.8421
38.5536
31.4525
24.501
17.6936
11.0656
4.69323
-1.3127
-6.81998
-11.6927
-15.8107
-19.0889
-21.492
-23.0443
-23.832
-23.9976
-23.728
-23.2365
-22.742
-22.4485
-22.5257
-23.0962
-24.2273
-25.9301
-28.1653
-30.8522
-33.8808
-37.1238
-40.4461
-43.7112
-46.7841
-49.5309
-51.8171
-53.5068
-54.4635
-54.5541
-53.6577
-51.6757
-48.5442
-44.2449
-38.813
-32.3408
-24.9748
-16.908
-8.36778
0.399212
9.1428
17.6236
25.6245
32.958
39.4675
45.0216
49.4985
52.7584
54.603
54.7232
52.6422
47.6659
38.8584
25.0627
4.98482
-22.6507
-58.8749
-104.201
-158.341
-219.966
-286.559
-354.428
-418.884
-474.618
-516.223
-538.817
-538.674
-513.779
-464.211
-392.292
-302.469
-200.928
-94.9887
7.6537
99.7355
175.18
229.71
261.232
269.969
258.311
230.431
191.711
148.071
105.266
68.2673
40.7696
24.8914
21.0866
28.2612
44.0662
65.3155
88.4686
110.111
127.376
138.253
141.766
138
127.984
113.476
96.6541
79.7955
64.9559
53.7071
46.9551
44.8565
46.8361
51.698
57.8078
63.3202
66.4214
65.5541
59.6009
48.0049
30.8175
8.67069
-17.317
-45.6878
-74.8242
-103.137
-129.24
-152.094
-171.099
-186.132
-197.532
-206.018
-212.582
-218.343
-224.398
-231.683
-240.862
-252.249
-265.781
-281.041
-297.313
-313.682
-329.138
-342.699
-353.507
-360.913
-364.522
-364.209
-360.096
-352.503
-341.883
-328.746
-313.589
-296.839
-278.82
-259.74
-239.71
-218.775
-196.965
-174.345
-151.064
-127.386
-103.705
-80.5348
-58.4793
-38.1797
-20.2537
-5.23089
6.508
14.7766
19.6091
21.2629
20.1969
17.0291
12.4773
7.29119
2.18322
-2.23375
-5.49567
-7.31809
-7.6065
-6.44604
-4.07333
-0.834621
2.86391
6.60753
10.0202
12.8026
14.7577
15.8021
15.9638
15.3673
14.2101
12.7341
11.1946
9.83181
8.84682
8.38419
8.52201
9.26966
10.5727
12.3231
14.3747
16.559
18.7036
20.6475
22.2543
23.4216
24.0859
24.2228
23.8434
22.9879
21.7167
20.1021
18.219
16.1391
13.926
11.6332
9.30443
6.97506
4.67466
2.42931
0.263246
-1.80057
-3.74116
-5.54118
-7.18925
-8.68246
-10.0284
-11.2467
-12.369
-13.4384
-14.5069
-15.6328
-16.8755
-18.2911
-19.9261
-21.8118
-23.9579
-26.3481
-28.9354
-31.641
-34.3539
-36.9347
-39.221
-41.0354
-42.1961
-42.5286
-41.8779
-40.1215
-37.1809
-33.0318
-27.7118
-21.3232
-14.0328
-6.06529
2.30833
10.7867
19.0578
26.8205
33.8055
39.7932
44.6262
48.2122
50.5162
51.5376
51.2727
49.661
46.5218
41.4868
33.944
23.0062
7.52595
-13.8317
-42.4463
-79.5325
-125.881
-181.577
-245.749
-316.383
-390.272
-463.123
-529.836
-584.954
-623.235
-640.27
-633.07
-600.538
-543.739
-465.928
-372.311
-269.57
-165.193
-66.7077
19.0997
86.8745
133.211
156.939
159.146
142.951
113.049
75.1163
35.1226
-1.33504
-29.6189
-46.4844
-50.3228
-41.1984
-20.6892
8.43362
42.6362
78.103
111.206
138.906
159.046
170.511
173.248
168.15
156.85
141.44
124.161
107.118
92.0358
80.0916
71.833
67.1861
65.5406
65.8943
67.032
67.7137
66.846
63.6168
57.5793
48.6781
37.2204
23.7989
9.18148
-5.81433
-20.4454
-34.1471
-46.6041
-57.782
-67.9144
-77.4526
-86.9848
-97.1387
-108.48
-121.425
-136.168
-152.652
-170.559
-189.348
-208.313
-226.663
-243.608
-258.451
-270.649
-279.866
-285.984
-289.096
-289.461
-287.448
-283.47
-277.914
-271.086
-263.179
-254.253
-244.248
-233.014
-220.358
-206.095
-190.106
-172.382
-153.063
-132.445
-110.988
-89.2811
-68.0097
-47.8947
-29.6325
-13.8319
-0.9579
8.71103
15.1078
18.3803
18.8746
17.0977
13.6669
9.24964
4.50125
0.00767508
-3.76124
-6.4834
-7.99854
-8.30442
-7.537
-5.93782
-3.81366
-1.49326
0.713467
2.54942
3.8344
4.47736
4.47682
3.91043
2.91639
1.66947
0.355442
-0.853058
-1.81633
-2.44117
-2.68717
-2.56589
-2.13356
-1.47913
-0.709579
0.0654766
0.74777
1.26145
1.56016
1.62964
1.48619
1.17161
0.745888
0.278913
-0.157436
-0.495919
-0.678682
-0.660026
-0.407467
0.0984557
0.865088
1.88885
3.15646
4.64597
6.32787
8.16599
10.1187
12.1401
14.1814
16.1924
18.1233
19.9254
21.5529
22.9632
24.1172
24.9789
25.5152
25.6955
25.4907
24.8743
23.8229
22.3181
20.3491
17.9164
15.0364
11.747
8.1142
4.23887
0.263217
-3.62429
-7.18775
-10.1482
-12.1953
-13.0074
-12.2793
-9.75562
-5.26546
1.24546
9.69182
19.8388
31.3083
43.6032
56.147
68.3355
79.5942
89.434
97.4962
103.58
107.647
109.792
110.194
109.026
106.361
102.057
95.6661
86.3622
72.9373
53.8663
27.4618
-7.88172
-53.3754
-109.487
-175.614
-249.828
-328.778
-407.764
-481.046
-542.341
-585.489
-605.194
-597.736
-561.562
-497.641
-409.54
-303.176
-186.274
-67.5971
43.9701
140.349
215.105
264.081
285.762
281.32
254.357
210.386
156.114
98.6403
44.6547
-0.256769
-32.1332
-48.9307
-50.5702
-38.7548
-16.5945
11.8987
42.3755
70.7023
93.4354
108.169
113.725
110.177
98.7223
81.427
60.8892
39.8688
20.9301
6.13959
-3.14814
-6.39908
-3.89853
3.35039
13.8075
25.6267
36.9055
45.9211
51.3253
52.279
48.5145
40.325
28.4868
14.1315
-1.41642
-16.8113
-30.8501
-42.6073
-51.5288
-57.4761
-60.7192
-61.8806
-61.8426
-61.6266
-62.2636
-64.6682
-69.5316
-77.2439
-87.854
-101.069
-116.289
-132.678
-149.251
-164.978
-178.878
-190.108
-198.026
-202.224
-202.539
-199.029
-191.936
-181.626
-168.532
-153.099
-135.74
-116.806
-96.5813
-75.2894
-53.1151
-30.2334
-6.83849
16.8319
40.4824
63.7577
86.2521
107.529
127.146
144.687
159.782
172.141
181.562
187.947
191.304
191.75
189.499
184.854
178.193
169.945
160.57
150.522
140.226
130.036
120.215
110.91
102.143
93.8167
85.732
77.623
69.1985
60.1891
50.3927
39.7105
28.1702
15.9317
3.27455
-9.42938
-21.7552
-33.2694
-43.5733
-52.3398
-59.3373
-64.4416
-67.6326
-68.9803
-68.6234
-66.7451
-63.551
-59.2517
-54.0532
-48.1536
-41.7461
-35.0246
-28.1904
-21.4552
-15.0398
-9.16713
-4.04946
0.128155
3.22637
5.16893
5.95616
5.672
4.48312
2.62914
0.404546
-1.86607
-3.85709
-5.27195
-5.87081
-5.4925
-4.06807
-1.62432
1.72318
5.7864
10.3285
15.0912
19.8233
24.3044
28.3645
31.8934
34.8426
37.2184
39.0685
40.4645
41.4828
42.1871
42.6146
42.7677
42.6127
42.085
41.1008
39.573
37.4294
34.6309
31.1852
27.1567
22.6679
17.8937
13.0477
8.36256
4.06465
0.34556
-2.66826
-4.94503
-6.573
-7.77679
-8.91926
-10.4838
-13.0343
-17.1528
-23.3635
-32.0515
-43.3972
-57.3418
-73.602
-91.7411
-111.293
-131.917
-153.559
-176.567
-201.731
-230.208
-263.333
-302.315
-347.878
-399.893
-457.077
-516.848
-575.362
-627.782
-668.746
-692.998
-696.079
-674.998
-628.755
-558.645
-468.281
-363.325
-250.941
-139.063
-35.555
52.6283
120.156
163.838
182.877
178.835
155.327
117.499
71.3532
23.0276
-21.8925
-58.9424
-85.1668
-99.2956
-101.703
-94.1715
-79.5096
-61.0798
-42.3059
-26.2214
-15.1116
-10.2849
-11.9918
-19.4873
-31.2175
-45.0962
-58.8279
-70.2332
-77.5336
-79.5636
-75.8875
-66.8126
-53.3074
-36.8402
-19.1656
-2.09099
12.7477
24.0711
31.0844
33.5352
31.7003
26.3095
18.4205
9.26473
0.0863334
-8.0059
-14.1563
-17.8384
-18.883
-17.4613
-14.0272
-9.23148
-3.82112
1.46333
5.9789
9.25077
11.0165
11.2425
10.1143
8.00603
5.43446
3.00425
1.35095
1.08728
2.75761
6.80434
13.5484
23.1849
35.7916
51.3488
69.765
90.9032
114.604
140.7
169.014
199.355
231.49
265.12
299.849
335.163
370.417
404.844
437.579
467.701
494.293
516.506
533.629
545.144
550.779
550.53
544.669
533.713
518.386
499.546
478.108
454.962
430.895
406.527
382.276
358.337
334.705
311.207
287.572
263.503
238.756
213.205
186.899
160.079
133.181
106.801
81.6356
58.4141
37.8175
20.4043
6.54963
-3.59469
-10.1155
-13.3267
-13.7343
-11.9821
-8.78635
-4.86594
-0.877941
2.63623
5.28781
6.85848
7.29853
6.70727
5.29972
3.36453
1.21885
-0.834299
-2.54167
-3.72496
-4.29382
-4.24651
-3.65956
-2.66903
-1.44652
-0.17353
0.982456
1.88737
2.45351
2.64512
2.47657
2.00442
1.31486
0.508983
-0.312003
-1.05962
-1.66743
-2.09611
-2.33405
-2.39416
-2.30772
-2.11694
-1.86721
-1.60055
-1.35097
-1.14209
-0.986907
-0.88919
-0.845869
-0.849563
-0.890778
-0.959456
-1.04591
-1.14135
-1.23843
-1.33203
-1.42079
-1.50969
-1.6147
-1.77116
-2.04837
-2.5732
-3.56481
-5.37999
-8.56452
-13.9005
-22.4339
-35.4635
-54.4719
-80.9847
-116.356
-161.493
-216.552
-280.656
-351.688
-426.216
-499.609
-566.34
-620.484
-656.355
-669.197
-655.848
-615.253
-548.763
-460.153
-355.333
-241.804
-127.889
-21.8715
68.8722
138.631
183.911
203.714
199.529
175.038
135.583
87.4769
37.2501
-9.08049
-46.6254
-72.0593
-83.8393
-82.1966
-68.9212
-46.9836
-20.0535
8.01611
33.6746
54.0714
67.3267
72.6543
70.3362
61.5679
48.2061
32.4609
16.5762
2.54074
-8.13949
-14.5821
-16.5765
-14.5405
-9.40284
-2.43157
4.96215
11.4184
15.796
17.2946
15.5203
10.4929
2.59931
-7.49428
-18.9568
-30.9155
-42.5711
-53.292
-62.6769
-70.5815
-77.1083
-82.5651
-87.3997
-92.1206
-97.2154
-103.078
-109.954
-117.908
-126.816
-136.389
-146.21
-155.791
-164.626
-172.255
-178.295
-182.477
-184.641
-184.727
-182.747
-178.751
-172.8
-164.945
-155.224
-143.678
-130.378
-115.461
-99.1648
-81.8518
-64.0144
-46.2599
-29.2723
-13.7553
-0.365445
10.3572
18.0499
22.5704
24.0167
22.7198
19.211
14.1667
8.3389
2.47977
-2.73166
-6.75108
-9.21303
-9.95335
-9.00859
-6.59393
-3.06354
1.14103
5.54763
9.70878
13.2491
15.9004
17.5211
18.0994
17.7416
16.647
15.0761
13.3135
11.6335
10.2694
9.39223
9.09888
9.41012
10.2782
11.6012
13.2422
15.0494
16.8758
18.5953
20.1137
21.3752
22.3622
23.0919
23.6081
23.9723
24.2529
24.5157
24.8164
25.1938
25.6672
26.2338
26.8698
27.5317
28.1592
28.6779
29.0022
29.0369
28.6771
27.8057
26.2892
23.9731
20.6801
16.2126
10.3633
2.93593
-6.22642
-17.2049
-29.9679
-44.3376
-59.9693
-76.3473
-92.8028
-108.555
-122.771
-134.64
-143.453
-148.677
-150.011
-147.425
-141.161
-131.709
-119.757
-106.111
-91.6145
-77.0621
-63.1291
-50.3296
-39.0088
-29.3767
-21.5813
-15.8117
-12.4146
-11.9994
-15.5048
-24.1989
-39.5924
-63.2583
-96.5665
-140.362
-194.636
-258.238
-328.711
-402.272
-474
-538.214
-589.024
-620.991
-629.802
-612.875
-569.8
-502.53
-415.303
-314.275
-206.917
-101.244
-4.96929
75.2924
134.695
170.608
182.793
173.312
146.162
106.723
61.0705
15.2628
-25.3264
-56.5418
-75.7972
-82.2141
-76.5481
-60.9286
-38.4612
-12.7511
12.5872
34.3722
50.2008
58.6641
59.4189
53.1212
41.2427
25.8052
9.0742
-6.74736
-19.7854
-28.6934
-32.7658
-31.9591
-26.8295
-18.4028
-7.99961
2.95752
13.128
21.4075
27.035
29.6458
29.2684
26.273
21.2821
15.0592
8.39189
1.98286
-3.63773
-8.17038
-11.5705
-14.0385
-15.9794
-17.9377
-20.5184
-24.3016
-29.7629
-37.2085
-46.7308
-58.1911
-71.2281
-85.293
-99.7035
-113.712
-126.576
-137.629
-146.332
-152.307
-155.358
-155.454
-152.711
-147.352
-139.669
-129.991
-118.658
-106.012
-92.3945
-78.154
-63.6561
-49.2887
-35.4605
-22.589
-11.0781
-1.28886
6.49386
12.0924
15.4598
16.691
16.02
13.801
10.4772
6.53856
2.47604
-1.26351
-4.31574
-6.42622
-7.46395
-7.42023
-6.39413
-4.56729
-2.17218
0.541716
3.3394
6.02591
8.46355
10.5796
12.3647
13.8636
15.1597
16.3571
17.5618
18.865
20.3303
21.9864
23.824
25.7999
27.8434
29.8676
31.7813
33.5007
34.96
36.1189
36.9667
37.5223
37.8308
37.9569
37.9763
37.9668
37.9993
38.1308
38.3991
38.8209
39.3916
40.0879
40.8712
41.6922
42.4955
43.223
43.8179
44.2262
44.3976
44.2863
43.8497
43.0481
41.8446
40.2065
38.1084
35.5368
32.4968
29.0182
25.161
21.0182
16.7145
12.4013
8.24605
4.41987
1.08149
-1.63796
-3.6485
-4.91089
-5.44108
-5.30872
-4.62985
-3.5547
-2.25203
-0.892059
0.370115
1.4086
2.13679
2.51253
2.53804
2.25491
1.73523
1.07003
0.356632
-0.313851
-0.868183
-1.26241
-1.495
-1.62486
-1.79782
-2.28345
-3.52077
-6.16605
-11.1301
-19.5876
-32.9393
-52.7112
-80.3826
-117.15
-163.647
-219.663
-283.905
-353.858
-425.793
-494.951
-555.912
-603.104
-631.428
-636.886
-617.144
-571.941
-503.267
-415.28
-313.964
-206.553
-100.798
-4.17348
76.894
137.661
175.5
190.089
183.317
158.965
122.176
78.8064
34.745
-4.73095
-35.4747
-54.8184
-61.7187
-56.7001
-41.6184
-19.29
6.95539
33.7362
58.0364
77.5302
90.7844
97.3238
97.5678
92.6583
84.2128
74.0414
63.8684
55.0922
48.6126
44.7402
43.1939
43.1781
43.5254
42.8792
39.8921
33.4108
22.6268
7.17617
-12.8224
-36.7889
-63.7588
-92.4995
-121.652
-149.877
-175.989
-199.066
-218.518
-234.114
-245.967
-254.487
-260.298
-264.146
-266.8
-268.959
-271.186
-273.856
-277.135
-280.989
-285.207
-289.455
-293.317
-296.358
-298.163
-298.373
-296.7
-292.93
-286.915
-278.553
-267.778
-254.548
-238.85
-220.717
-200.256
-177.682
-153.351
-127.777
-101.634
-75.7328
-50.9731
-28.2739
-8.49249
7.66007
19.6943
27.3975
30.8612
30.4764
26.8951
20.9652
13.6444
5.90489
-1.3603
-7.41782
-11.753
-14.1017
-14.452
-13.019
-10.1964
-6.49176
-2.45595
1.38622
4.59564
6.8629
8.03308
8.11038
7.2438
5.69762
3.81128
1.95451
0.483243
-0.298618
-0.167802
1.00164
3.23409
6.45955
10.5298
15.2405
20.3557
25.6312
30.8354
35.7644
40.252
44.1738
47.4475
50.0292
51.9076
53.0981
53.636
53.571
52.9629
51.8775
50.384
48.5529
46.4543
44.1565
41.7251
39.2215
36.702
34.217
31.8097
29.5155
27.361
25.3629
23.5275
21.85
20.314
18.891
17.5393
16.2029
14.8104
13.2738
11.4886
9.33718
6.69348
3.43271
-0.556518
-5.35772
-11.0118
-17.5039
-24.7551
-32.6186
-40.8846
-49.2904
-57.5369
-65.3082
-72.2926
-78.201
-82.783
-85.8371
-87.217
-86.834
-84.6565
-80.7098
-75.0747
-67.8878
-59.3408
-49.6788
-39.1954
-28.2239
-17.1224
-6.25545
4.02851
13.4197
21.666
28.5845
34.0599
38.0268
40.433
41.1851
40.0807
36.7376
30.5344
20.5815
5.74208
-15.2799
-43.7781
-80.8121
-126.929
-181.874
-244.347
-311.848
-380.685
-446.145
-502.867
-545.365
-568.655
-568.903
-543.988
-493.913
-420.968
-329.624
-226.16
-118.046
-13.1795
80.946
158.021
213.56
245.321
253.45
240.356
210.328
168.953
122.423
76.8181
37.4373
8.28147
-8.28374
-11.644
-2.83839
15.7259
40.6965
68.2743
94.7206
116.809
132.173
139.515
138.662
130.48
116.659
99.4266
81.2105
64.3101
50.6131
41.3876
37.1695
37.7516
42.2663
49.3445
57.3241
64.4782
69.2325
70.3461
67.0349
59.03
46.5664
30.3126
11.2532
-9.4553
-30.6353
-51.2273
-70.4006
-87.624
-102.693
-115.712
-127.041
-137.214
-146.845
-156.531
-166.771
-177.904
-190.075
-203.233
-217.151
-231.468
-245.748
-259.532
-272.393
-283.974
-294.011
-302.33
-308.841
-313.502
-316.293
-317.177
-316.086
-312.903
-307.473
-299.622
-289.188
-276.06
-260.214
-241.748
-220.901
-198.056
-173.736
-148.57
-123.262
-98.5384
-75.0993
-53.5703
-34.4597
-18.128
-4.77026
5.58619
13.0704
17.9437
20.5675
21.3642
20.7792
19.2437
17.1441
14.8003
12.4518
10.2546
8.28604
6.55725
5.03
3.63664
2.30012
0.952115
-0.452332
-1.92503
-3.44019
-4.93549
-6.31802
-7.47433
-8.28317
-8.62956
-8.41876
-7.58857
-6.11886
-4.03727
-1.42058
1.60868
4.89001
8.23662
11.4502
14.3372
16.7254
18.4793
19.512
19.7932
19.3514
18.2705
16.6806
14.7448
12.6419
10.5485
8.62207
6.98594
5.71901
4.85034
4.35941
4.18172
4.21918
4.35394
4.46425
4.44058
4.20007
3.69762
2.93205
1.94639
0.821862
-0.334015
-1.40383
-2.27919
-2.87938
-3.16701
-3.15819
-2.92531
-2.59208
-2.321
-2.29501
-2.69555
-3.6797
-5.3593
-7.78452
-10.934
-14.7129
-18.9595
-23.4589
-27.9634
-32.2157
-35.973
-39.0272
-41.2215
-42.4596
-42.7072
-41.9879
-40.3735
-37.9706
-34.9063
-31.314
-27.3218
-23.043
-18.5714
-13.9787
-9.31482
-4.60993
0.123597
4.88921
9.70446
14.5986
19.6069
24.7592
30.0584
35.4457
40.7518
45.6342
49.5081
51.4831
50.3213
44.4388
31.9722
10.9229
-20.6123
-64.1388
-120.416
-189.114
-268.53
-355.44
-445.125
-531.618
-608.18
-667.947
-704.696
-713.627
-692.039
-639.807
-559.575
-456.611
-338.352
-213.667
-91.9392
17.9153
108.375
174.062
212.232
222.942
208.897
175.002
127.685
74.0912
21.2502
-24.6856
-59.0411
-79
-83.7376
-74.3103
-53.3345
-24.5119
7.92807
39.7939
67.4359
88.133
100.326
103.683
99.006
88.0017
72.9658
56.421
40.7623
27.9545
19.3123
15.3863
15.9568
20.1285
26.5048
33.4111
39.1366
42.1614
41.3406
36.0275
26.1238
12.0566
-5.30759
-24.7979
-45.1008
-64.928
-83.1679
-99.0052
-111.995
-122.089
-129.607
-135.171
-139.605
-143.815
-148.67
-154.891
-162.967
-173.101
-185.192
-198.861
-213.493
-228.314
-242.479
-255.155
-265.603
-273.237
-277.668
-278.719
-276.411
-270.937
-262.618
-251.839
-239.005
-224.486
-208.592
-191.555
-173.534
-154.641
-134.967
-114.625
-93.7704
-72.6322
-51.5148
-30.7931
-10.8909
7.75055
24.7101
39.6253
52.226
62.36
70.0067
75.2775
78.404
79.7142
79.601
78.4862
76.7838
74.8661
73.0366
71.5099
70.4023
69.7312
69.424
69.335
69.2687
69.0064
68.3344
67.071
65.0878
62.3254
58.8002
54.6017
49.8816
44.8366
39.6858
34.6474
29.9173
25.651
21.9524
18.8691
16.3936
14.4711
13.0109
11.8999
11.0167
10.2445
9.48134
8.64747
7.68816
6.57321
5.29279
3.85042
2.2546
0.510123
-1.38915
-3.46477
-5.75458
-8.30952
-11.1866
-14.4393
-18.1061
-22.1997
-26.6983
-31.5398
-36.6215
-41.8042
-46.9211
-51.7906
-56.2303
-60.0709
-63.1674
-65.4057
-66.7038
-67.0086
-66.2882
-64.5244
-61.7052
-57.822
-52.8709
-46.8597
-39.8179
-31.8094
-22.9434
-13.3823
-3.34331
6.9065
17.0627
26.8009
35.798
43.7513
50.3932
55.4931
58.8437
60.2275
59.3645
55.8484
49.0842
38.247
22.2857
-0.00833686
-29.8545
-68.2578
-115.726
-171.967
-235.625
-304.115
-373.61
-439.231
-495.433
-536.574
-557.592
-554.693
-525.962
-471.775
-394.951
-300.598
-195.659
-88.2161
13.3729
101.376
169.521
213.652
232.123
225.892
198.302
154.605
101.279
45.2414
-6.93238
-49.7103
-79.1274
-93.0905
-91.4416
-75.79
-49.1539
-15.4705
20.9553
55.9889
86.1287
108.843
122.753
127.656
124.4
114.647
100.555
84.4458
68.4802
54.3987
43.344
35.7821
31.5215
29.8164
29.5322
29.3462
27.9517
24.2411
17.4457
7.21743
-6.35059
-22.7632
-41.2107
-60.6899
-80.1403
-98.5763
-115.201
-129.485
-141.213
-150.481
-157.662
-163.339
-168.226
-173.067
-178.554
-185.246
-193.513
-203.504
-215.137
-228.118
-241.975
-256.108
-269.847
-282.508
-293.442
-302.075
-307.934
-310.661
-310.004
-305.82
-298.051
-286.721
-271.929
-253.848
-232.741
-208.975
-183.032
-155.523
-127.176
-98.8176
-71.3262
-45.5748
-22.3609
-2.33652
14.0541
26.6178
35.4311
40.8293
43.3682
43.761
42.8008
41.2758
39.8897
39.1963
39.5544
41.1087
43.7962
47.376
51.4765
55.6534
59.451
62.4582
64.3542
64.9387
64.1456
62.0394
58.7959
54.6733
49.9756
45.0149
40.0773
35.3953
31.1306
27.3669
24.1144
21.3216
18.8947
16.719
14.6802
12.683
10.664
8.59755
6.49595
4.40258
2.38115
0.502393
-1.16956
-2.58896
-3.73686
-4.62521
-5.29633
-5.81815
-6.27633
-6.76456
-7.37455
-8.18713
-9.26551
-10.6513
-12.3636
-14.4
-16.74
-19.3494
-22.1838
-25.1932
-28.3245
-31.524
-34.7388
-37.9178
-41.0122
-43.9746
-46.7581
-49.3137
-51.586
-53.509
-55.0016
-55.9642
-56.2786
-55.8122
-54.4263
-51.9911
-48.4025
-43.6019
-37.5938
-30.46
-22.3654
-13.556
-4.34655
4.9
13.7997
21.9772
29.0929
34.8627
39.0643
41.5266
42.0986
40.6006
36.7628
30.1632
20.1808
5.98269
-13.4368
-39.1529
-72.1408
-113.052
-161.963
-218.138
-279.85
-344.308
-407.735
-465.603
-513.017
-545.226
-558.182
-549.087
-516.833
-462.278
-388.296
-299.591
-202.276
-103.285
-9.66825
72.1293
136.917
181.26
203.771
205.165
188.077
156.672
116.11
71.9247
29.4128
-6.91607
-33.7517
-49.2268
-52.9748
-46.0095
-30.4571
-9.18444
14.6213
37.8671
57.9131
72.8377
81.586
83.9953
80.7065
72.9844
62.4798
50.9667
40.0944
31.1802
25.0694
22.0702
21.9666
24.0997
27.4988
31.042
33.6216
34.2932
32.3899
27.5906
19.9364
9.79757
-2.20035
-15.2803
-28.6298
-41.5141
-53.3702
-63.8726
-72.9609
-80.8313
-87.893
-94.6988
-101.86
-109.955
-119.452
-130.638
-143.583
-158.123
-173.88
-190.296
-206.698
-222.361
-236.58
-248.734
-258.336
-265.056
-268.739
-269.38
-267.104
-262.118
-254.673
-245.018
-233.378
-219.935
-204.834
-188.199
-170.161
-150.888
-130.613
-109.647
-88.3869
-67.2987
-46.8891
-27.6682
-10.1043
5.41763
18.6314
29.4119
37.7826
43.9065
48.0635
50.6155
51.9659
52.517
52.6315
52.6014
52.6282
52.8157
53.1749
53.6399
54.0912
54.3836
54.3742
53.9465
53.0296
51.6073
49.7205
47.4599
44.953
42.3465
39.7864
37.3999
35.2799
33.4741
31.9808
30.7508
29.6947
28.6953
27.6231
26.3527
24.7781
22.8258
20.4632
17.7015
14.594
11.2289
7.71869
4.18689
0.754668
-2.47144
-5.40904
-8.00577
-10.2411
-12.1242
-13.6889
-14.9865
-16.0783
-17.0278
-17.8957
-18.7369
-19.5994
-20.5261
-21.5576
-22.7353
-24.103
-25.707
-27.5942
-29.8066
-32.3751
-35.3121
-38.6039
-42.205
-46.0349
-49.977
-53.8819
-57.5726
-60.8525
-63.515
-65.3544
-66.1763
-65.8092
-64.1153
-61.0012
-56.4283
-50.4214
-43.0755
-34.5586
-25.1095
-15.0303
-4.67257
5.58184
15.3429
24.2354
31.9172
38.0893
42.49
44.8721
44.9608
42.3982
36.6843
27.1325
12.8584
-7.17775
-34.0621
-68.7499
-111.831
-163.271
-222.163
-286.553
-353.378
-418.561
-477.283
-524.408
-555.038
-565.11
-551.966
-514.796
-454.898
-375.681
-282.418
-181.759
-81.0708
12.3284
91.9262
152.681
191.505
207.521
202.051
178.364
141.212
96.2309
49.2742
5.77071
-29.8216
-54.4086
-66.4646
-66.0397
-54.5862
-34.6409
-9.41349
17.6607
43.3467
64.9659
80.6464
89.4488
91.3635
87.1961
78.3636
66.6395
53.8828
41.7877
31.6826
24.3999
20.2233
18.9133
19.7976
21.9085
24.1446
25.4331
24.8724
21.8381
16.0426
7.54684
-3.27522
-15.8079
-29.2906
-42.924
-55.9741
-67.8587
-78.2092
-86.9011
-94.0523
-99.9917
-105.204
-110.26
-115.737
-122.153
-129.894
-139.18
-150.037
-162.293
-175.608
-189.499
-203.396
-216.693
-228.8
-239.182
-247.4
-253.121
-256.124
-256.294
-253.602
-248.082
-239.817
-228.919
-215.523
-199.799
-181.959
-162.278
-141.119
-118.944
-96.3151
-73.8856
-52.3666
-32.4818
-14.9098
-0.222807
11.1711
19.0726
23.5166
24.7742
23.3293
19.8322
15.0357
9.72166
4.62524
0.367914
-2.59493
-4.00533
-3.81074
-2.1488
0.687676
4.30018
8.24141
12.0723
15.4121
17.9768
19.6009
20.2436
19.9781
18.9687
17.4394
15.6386
13.8054
12.1412
10.7895
9.82581
9.25756
9.03242
9.05341
9.19778
9.33667
9.35314
9.15656
8.69186
7.94351
6.93416
5.71893
4.3765
2.99827
1.67724
0.497538
-0.474053
-1.19421
-1.64627
-1.84059
-1.81229
-1.61682
-1.32386
-1.01031
-0.753003
-0.621896
-0.674365
-0.951218
-1.47481
-2.24953
-3.26454
-4.49845
-5.92524
-7.5204
-9.26622
-11.1553
-13.1917
-15.3889
-17.7661
-20.3426
-23.1317
-26.1351
-29.3395
-32.7139
-36.2089
-39.7568
-43.2713
-46.6467
-49.7568
-52.4531
-54.566
-55.9074
-56.2793
-55.4865
-53.3546
-49.752
-44.6122
-37.9542
-29.8965
-20.6627
-10.5756
-0.0398525
10.4856
20.5225
29.6106
37.3429
43.3903
47.5113
49.539
49.3447
46.7769
41.5845
33.3376
21.366
4.73985
-17.6861
-47.148
-84.7676
-131.281
-186.736
-250.211
-319.607
-391.585
-461.674
-524.574
-574.65
-606.547
-615.858
-599.754
-557.471
-490.57
-402.931
-300.453
-190.495
-81.1343
19.6848
104.98
169.453
210
225.965
219.105
193.281
153.932
107.399
60.1818
18.2366
-13.6226
-32.1474
-35.8712
-25.1082
-1.75417
31.0719
69.4891
109.356
146.754
178.391
201.898
215.982
220.452
216.099
204.501
187.739
168.104
147.814
128.763
112.356
99.4086
90.136
84.214
80.8981
79.1784
77.9486
76.1655
72.98
67.8272
60.4665
50.9745
39.6944
27.1557
13.9768
0.767816
-11.9552
-23.8312
-34.6866
-44.5359
-53.5557
-62.037
-70.3256
-78.7613
-87.6224
-97.0861
-107.206
-117.909
-129.01
-140.24
-151.28
-161.799
-171.486
-180.074
-187.357
-193.191
-197.488
-200.208
-201.339
-200.881
-198.841
-195.215
-189.995
-183.17
-174.733
-164.693
-153.088
-139.994
-125.535
-109.889
-93.293
-76.0393
-58.473
-40.9802
-23.9736
-7.87361
6.91438
20.0234
31.1479
40.0642
46.6439
50.8619
52.7939
52.6072
50.5432
46.8946
41.9806
36.1218
29.6189
22.7362
15.6916
8.65452
1.74917
-4.93641
-11.3387
-17.4063
-23.0889
-28.3295
-33.061
-37.2065
-40.6841
-43.4144
-45.3286
-46.3779
-46.5396
-45.8224
-44.268
-41.9491
-38.9663
-35.4415
-31.5118
-27.3219
-23.0178
-18.7408
-14.6224
-10.7799
-7.31243
-4.29848
-1.79281
0.175088
1.60189
2.51
2.94573
2.97595
2.68318
2.15964
1.50038
0.796366
0.128028
-0.440088
-0.863029
-1.11717
-1.19987
-1.12714
-0.929758
-0.648168
-0.326971
-0.00946433
0.267202
0.475995
0.603176
0.65107
0.641018
0.616945
0.649497
0.839869
1.32178
2.25979
3.84282
6.27253
9.74786
14.4474
20.5121
28.0295
37.0215
47.4364
59.1454
71.9441
85.5585
99.6563
113.862
127.777
141.001
153.16
163.929
173.067
180.436
186.019
189.931
192.409
193.789
194.456
194.773
194.995
195.165
195.016
193.895
190.732
184.073
172.208
153.378
126.074
89.3771
43.3041
-10.9094
-70.6514
-131.954
-189.723
-238.182
-271.478
-284.394
-273.058
-235.552
-172.316
-86.2854
17.2842
131.286
247.472
357.318
452.93
527.871
577.818
600.951
598.049
572.276
528.714
473.689
414
356.146
305.631
266.45
240.783
228.93
229.48
239.658
255.815
273.969
290.333
301.77
306.114
302.344
290.586
271.982
248.433
222.282
195.964
171.691
151.184
135.507
124.99
119.255
117.327
117.811
119.104
119.617
117.979
113.197
104.76
92.68
77.4628
60.0228
41.5539
23.3746
6.7665
-7.17226
-17.6456
-24.2364
-26.9382
-26.1403
-22.5733
-17.2233
-11.2255
-5.75035
-1.89272
-0.574772
-2.46935
-7.9499
-17.0691
-29.5661
-44.9005
-62.3078
-80.8708
-99.5987
-117.508
-133.696
-147.399
-158.034
-165.22
-168.775
-168.697
-165.132
-158.334
-148.625
-136.362
-121.914
-105.648
-87.9297
-69.1261
-49.6186
-29.8092
-10.1233
8.99648
27.1047
43.7766
58.6358
71.3831
81.8222
89.8759
95.5933
99.1425
100.794
100.89
99.8157
97.9587
95.6784
93.278
90.9857
88.9449
87.215
85.7794
84.5606
83.4388
82.2721
80.9139
79.2286
77.1013
74.4439
71.1968
67.3283
62.834
57.736
52.0839
45.9567
39.4647
32.7507
25.987
19.3704
13.1108
7.41711
2.48051
-1.54349
-4.5507
-6.50005
-7.4195
-7.40485
-6.61155
-5.24007
-3.51668
-1.67192
0.0806759
1.56296
2.64546
3.25406
3.36941
3.01949
2.26636
1.18918
-0.134186
-1.64446
-3.31453
-5.1574
-7.22701
-9.61148
-12.4195
-15.7617
-19.7292
-24.3727
-29.6859
-35.5945
-41.9523
-48.5466
-55.1093
-61.3351
-66.9021
-71.4952
-74.8279
-76.6623
-76.8258
-75.2222
-71.8392
-66.7494
-60.1074
-52.141
-43.1391
-33.435
-23.3878
-13.362
-3.70695
5.26181
13.2786
20.1385
25.7024
29.892
32.674
34.0294
33.9062
32.157
28.4652
22.2721
12.7224
-1.35069
-21.3746
-48.9045
-85.3996
-131.92
-188.781
-255.215
-329.113
-406.92
-483.735
-553.638
-610.25
-647.447
-660.144
-645.038
-601.187
-530.323
-436.841
-327.452
-210.52
-95.1869
9.615
96.1335
158.616
193.882
201.581
184.11
146.214
94.3414
35.8248
-21.9796
-72.5047
-110.635
-133.148
-138.909
-128.795
-105.401
-72.5704
-34.8168
3.26755
37.5596
64.8398
83.0734
91.5195
90.6731
82.0624
67.9436
50.9392
33.672
18.4388
6.96211
0.240075
-1.49537
1.28067
7.52813
15.8405
24.6685
32.5379
38.2349
40.9381
40.2853
36.3728
29.6943
21.0308
11.312
1.46976
-7.69689
-15.6261
-22.0565
-27.0421
-30.9219
-34.2495
-37.6964
-41.9437
-47.5773
-55.0007
-64.3776
-75.6089
-88.3456
-102.035
-115.99
-129.47
-141.769
-152.281
-160.555
-166.321
-169.486
-170.11
-168.361
-164.464
-158.654
-151.138
-142.074
-131.575
-119.724
-106.609
-92.3454
-77.112
-61.1568
-44.7969
-28.3985
-12.3451
2.99912
17.3256
30.4093
42.1246
52.4458
61.4342
69.214
75.9415
81.7743
86.8439
91.2365
94.9846
98.0682
100.426
101.97
102.61
102.265
100.886
98.4598
95.0167
90.6271
85.396
79.4546
72.9507
66.0396
58.8765
51.6107
44.3817
37.3163
30.5266
24.1085
18.1392
12.6761
7.75378
3.38199
-0.456162
-3.80542
-6.73824
-9.35316
-11.7712
-14.1301
-16.5767
-19.2575
-22.3075
-25.8395
-29.9329
-34.6247
-39.9032
-45.7041
-51.9119
-58.3639
-64.8588
-71.1673
-77.0439
-82.2392
-86.509
-89.6215
-91.36
-91.5229
-89.9216
-86.3782
-80.7265
-72.8178
-62.533
-49.8005
-34.6193
-17.0832
2.59738
24.0798
46.8858
70.4113
93.9525
116.745
138.016
157.036
173.17
185.914
194.906
199.91
200.768
197.325
189.347
176.447
158.049
133.419
101.77
62.4527
15.213
-39.5277
-100.419
-165.02
-229.784
-290.232
-341.314
-377.943
-395.621
-391.083
-362.849
-311.599
-240.282
-153.952
-59.3084
35.9815
124.106
197.967
251.957
282.553
288.661
271.66
235.156
184.486
126.044
66.5154
12.1265
-32.0085
-62.3637
-77.26
-76.8885
-63.1154
-39.1087
-8.84712
23.419
53.6864
78.6362
95.9446
104.442
104.119
95.987
81.8402
63.9404
44.6873
26.307
10.5991
-1.23499
-8.66942
-11.8383
-11.4396
-8.57927
-4.58129
-0.79163
1.59928
1.69492
-1.02184
-6.66186
-14.9596
-25.3511
-37.0849
-49.3495
-61.3976
-72.6509
-82.7711
-91.6909
-99.6011
-106.9
-114.115
-121.803
-130.459
-140.427
-151.842
-164.599
-178.36
-192.589
-206.613
-219.698
-231.128
-240.277
-246.661
-249.968
-250.059
-246.952
-240.78
-231.753
-220.118
-206.126
-190.027
-172.072
-152.537
-131.749
-110.115
-88.1383
-66.4156
-45.6161
-26.4389
-9.55278
4.46974
15.2185
22.4987
26.3637
27.1201
25.3044
21.6324
16.9271
12.0342
7.73695
4.67822
3.30251
3.82197
6.21117
10.2297
15.469
21.418
27.5386
33.3455
38.4815
42.7825
46.3278
49.4687
52.8322
57.2936
63.9152
73.8512
88.2207
107.961
133.673
165.487
202.949
244.977
289.866
335.379
378.891
417.603
448.786
470.037
479.522
476.18
459.85
431.326
392.304
345.247
293.164
239.33
186.984
139.026
97.7679
64.7414
40.6073
25.1591
17.4212
15.8239
18.4294
23.1786
28.1255
31.6358
32.5265
30.1391
24.3449
15.4894
4.29288
-8.27822
-21.1473
-33.2561
-43.6724
-51.6677
-56.7635
-58.745
-57.6484
-53.7267
-47.4017
-39.2094
-29.7444
-19.6082
-9.36554
0.490152
9.55992
17.5519
24.2834
29.6729
33.7231
36.4952
38.0742
38.5237
37.8314
35.8475
32.2224
26.3585
17.391
4.21891
-14.4007
-39.6876
-72.6112
-113.625
-162.403
-217.628
-276.888
-336.711
-392.779
-440.303
-474.524
-491.289
-487.611
-462.126
-415.388
-349.927
-270.075
-181.552
-90.881
-4.69641
70.9595
131.263
173.079
195.218
198.461
185.344
159.765
126.438
90.3091
55.9723
27.1884
6.53903
-4.74343
-6.76509
-0.796983
11.0249
26.0755
41.6378
55.2679
65.0837
69.9497
69.5427
64.3033
55.2909
43.9727
31.9785
20.8598
11.8838
5.8844
3.18731
3.60899
6.52426
10.9862
15.878
20.0731
22.5836
22.6759
19.9445
14.3363
6.12741
-4.14029
-15.7511
-27.9215
-39.9048
-51.0819
-61.0263
-69.5386
-76.6466
-82.5762
-87.6984
-92.4612
-97.318
-102.662
-108.773
-115.786
-123.682
-132.295
-141.344
-150.474
-159.296
-167.436
-174.568
-180.439
-184.88
-187.8
-189.171
-189.005
-187.326
-184.148
-179.455
-173.2
-165.311
-155.714
-144.363
-131.279
-116.579
-100.508
-83.4491
-65.9122
-48.5114
-31.9183
-16.8039
-3.77452
6.68997
14.2879
18.9296
20.7496
20.0935
17.4824
13.5579
9.01459
4.52798
0.686762
-2.06306
-3.45562
-3.42052
-2.07515
0.304153
3.32774
6.54875
9.52264
11.8629
13.2862
13.6431
12.9298
11.2825
8.95388
6.27794
3.62582
1.36014
-0.207142
-0.848302
-0.441194
1.02322
3.44704
6.64339
10.3628
14.3242
18.2455
21.8719
24.9964
27.4739
29.2256
30.2371
30.5486
30.2424
29.4268
28.2207
26.7393
25.0827
23.3284
21.5268
19.7008
17.8471
15.9392
13.9304
11.7583
9.34856
6.62068
3.49475
-0.0992785
-4.21051
-8.85477
-14.0024
-19.5682
-25.4052
-31.3044
-37.002
-42.1929
-46.5526
-49.7629
-51.5399
-51.6617
-49.9916
-46.4946
-41.2452
-34.4244
-26.3071
-17.24
-7.61201
2.17881
11.7594
20.8117
29.095
36.4559
42.8235
48.1867
52.5539
55.8958
58.0753
58.7737
57.4234
53.1641
44.8384
31.0445
10.2578
-18.9769
-57.7936
-106.718
-165.386
-232.319
-304.799
-378.903
-449.702
-511.65
-559.108
-586.967
-591.28
-569.819
-522.465
-451.377
-360.892
-257.165
-147.583
-40.0242
57.9495
139.858
200.943
238.592
252.52
244.675
218.9
180.402
135.101
88.9358
47.2299
14.164
-7.5698
-16.9133
-14.3854
-1.84407
17.8855
41.4616
65.4918
86.9548
103.531
113.808
117.35
114.634
106.877
95.7823
83.2523
71.1034
60.8192
53.3727
49.1316
47.8528
48.7594
50.6829
52.249
52.0784
48.9767
42.0911
31.0131
15.8217
-2.93897
-24.3382
-47.1826
-70.1672
-92.0339
-111.717
-128.46
-141.888
-152.029
-159.286
-164.366
-168.169
-171.666
-175.768
-181.217
-188.501
-197.805
-209.004
-221.693
-235.248
-248.912
-261.876
-273.374
-282.746
-289.489
-293.276
-293.952
-291.511
-286.052
-277.739
-266.764
-253.317
-237.579
-219.723
-199.94
-178.468
-155.621
-131.814
-107.577
-83.5453
-60.43
-38.9744
-19.8913
-3.79738
8.85081
17.8084
23.0747
24.9021
23.7779
20.3832
15.5316
10.0962
4.93234
0.806186
-1.66518
-2.0554
-0.149812
4.05465
10.3688
18.4461
27.8278
37.9942
48.4152
58.5966
68.1186
76.6623
84.0248
90.1211
94.9746
98.6982
101.468
103.495
104.993
106.155
107.132
108.015
108.835
109.558
110.1
110.333
110.106
109.261
107.649
105.149
101.683
97.2223
91.7996
85.5081
78.4989
70.9723
63.1635
55.3251
47.7068
40.5351
33.9948
28.2148
23.2606
19.1328
15.7736
13.0791
10.9152
9.1352
7.596
6.16923
4.74681
3.24004
1.57365
-0.322504
-2.52077
-5.09925
-8.13945
-11.7178
-15.8924
-20.6866
-26.0747
-31.9699
-38.2198
-44.61
-50.8757
-56.7223
-61.8499
-65.9825
-68.8947
-70.4348
-70.5402
-69.2426
-66.664
-63.0016
-58.5055
-53.452
-48.1154
-42.742
-37.5301
-32.6172
-28.075
-23.9125
-20.0846
-16.5039
-13.0528
-9.59435
-5.98012
-2.05658
2.32814
7.31328
13.006
19.4498
26.5778
34.1539
41.7056
48.4607
53.3035
54.7713
51.1072
40.3878
20.7264
-9.45359
-51.1041
-104.234
-167.644
-238.765
-313.654
-387.189
-453.445
-506.256
-539.884
-549.714
-532.894
-488.8
-419.266
-328.53
-222.886
-110.081
1.47482
103.583
189.105
252.68
291.234
304.202
293.469
263.032
218.442
166.109
112.547
63.6737
24.2255
-2.64037
-15.5281
-14.7665
-2.17756
19.3027
46.0921
74.4538
100.95
122.807
138.164
146.179
147.003
141.639
131.713
119.191
106.091
94.2134
84.9234
79.0095
76.6242
77.3074
80.0849
83.6227
86.4153
86.9842
84.0607
76.7328
64.542
47.5197
26.1642
1.36397
-25.7207
-53.7999
-81.6033
-108.017
-132.193
-153.624
-172.166
-188.024
-201.694
-213.873
-225.352
-236.908
-249.195
-262.673
-277.544
-293.744
-310.951
-328.629
-346.09
-362.572
-377.314
-389.621
-398.925
-404.809
-407.033
-405.521
-400.347
-391.707
-379.881
-365.207
-348.045
-328.761
-307.71
-285.23
-261.643
-237.259
-212.381
-187.318
-162.385
-137.912
-114.244
-91.7344
-70.738
-51.5951
-34.6131
-20.0453
-8.06968
1.23018
7.87829
12.0118
13.8774
13.8172
12.2462
9.62261
6.41309
3.05838
-0.0587295
-2.63891
-4.48298
-5.49829
-5.69439
-5.16923
-4.08777
-2.65571
-1.09186
0.398149
1.64367
2.52455
2.97917
3.00473
2.65074
2.00691
1.18776
0.315853
-0.494045
-1.14808
-1.58248
-1.76798
-1.70959
-1.44212
-1.02258
-0.52061
-0.00842068
0.448471
0.798693
1.00988
1.07067
0.989778
0.792797
0.517109
0.205939
-0.0977016
-0.356389
-0.542384
-0.640075
-0.646631
-0.570963
-0.431242
-0.251267
-0.0559527
0.133929
0.307572
0.470237
0.648971
0.896927
1.29498
1.94944
2.985
4.53305
6.7162
9.63089
13.3302
17.8094
22.9959
28.7452
34.8438
41.0193
46.9569
52.3228
56.7918
60.0765
61.9568
62.3049
61.1031
58.4523
54.5694
49.7736
44.4632
39.0855
34.1027
29.9587
27.0484
25.6932
26.1244
28.4737
32.7723
38.9562
46.8755
56.3082
66.9747
78.5538
90.6979
103.05
115.258
126.994
137.963
147.919
156.664
164.041
169.911
174.112
176.404
176.404
173.533
166.968
155.649
138.323
113.667
80.4594
37.8175
-14.5513
-76.1023
-145.264
-219.349
-294.601
-366.395
-429.599
-479.05
-510.118
-519.26
-519.26
-519.26
-519.26
-519.26
-519.26
-519.26
-519.26
-519.26
-519.26
-519.26
-519.26
-519.26
-519.26
-519.26
-519.26
-519.26
-519.26
-519.26
-519.26
