-43.7809
-27.4741
-9.5528
9.2724
28.1233
46.027
62.0066
75.1782
84.843
90.5616
92.2007
89.9477
84.2887
75.9555
65.8459
54.9292
44.1473
34.3236
26.0898
19.8384
15.7052
13.581
13.1509
13.9533
15.4501
17.1003
18.426
19.0643
18.8003
17.5781
15.4912
12.7538
9.66106
6.54142
3.70982
1.42683
-0.131432
-0.889542
-0.874559
-0.204273
0.93519
2.31853
3.71281
4.90707
5.73639
6.09803
5.95815
5.34938
4.36042
3.11965
1.77551
0.476375
-0.647625
-1.49862
-2.01969
-2.19768
-2.06033
-1.66871
-1.10639
-0.467003
0.158134
0.690765
1.07371
1.2754
1.29085
1.13912
0.858273
0.498373
0.113895
-0.24363
-0.531763
-0.721498
-0.799436
-0.767764
-0.64228
-0.448923
-0.219406
0.0134061
0.219761
0.376434
0.468955
0.492488
0.451414
0.357787
0.229003
0.0850289
-0.0543781
-0.172141
-0.255726
-0.298237
-0.298684
-0.261478
-0.195301
-0.111561
-0.0226636
0.059654
0.12573
0.168972
0.186362
0.178457
0.148936
0.103807
0.050405
-0.00368093
-0.0515983
-0.08804
-0.109785
-0.115925
-0.10776
-0.0884104
-0.0621834
-0.0338306
-0.00779242
0.0124416
0.0247674
0.0286434
0.0250032
0.0159431
0.00425476
-0.00710735
-0.0155323
-0.0191558
-0.0171072
-0.00957534
0.00229719
0.0166613
0.0312974
0.0439823
0.0528288
0.0565501
0.0546172
0.047295
0.0355626
0.0209389
0.005246
-0.00965255
-0.0220986
-0.0308411
-0.0351678
-0.0349565
-0.0306447
-0.0231303
-0.0136208
-0.00345648
0.00606728
0.0138554
0.0191227
0.0214386
0.0206849
0.0169137
0.0101038
-0.000153582
-0.0149766
-0.0364235
-0.0675308
-0.112077
-0.174048
-0.256839
-0.362332
-0.490016
-0.636371
-0.794762
-0.955988
-1.10958
-1.24575
-1.35776
-1.44436
-1.51182
-1.57515
-1.65825
-1.79282
-2.01606
-2.36752
-2.88536
-3.60261
-4.54397
-5.72339
-7.14304
-8.7934
-10.6546
-12.6988
-14.8922
-17.1986
-19.5805
-22.0012
-24.4249
-26.8164
-29.1399
-31.3578
-33.4288
-35.3076
-36.944
-38.2844
-39.2739
-39.8591
-39.9921
-39.6348
-38.7627
-37.3679
-35.4611
-33.0718
-30.2463
-27.045
-23.5363
-19.7911
-15.876
-11.8473
-7.74663
-3.59902
0.586661
4.81358
9.09034
13.4224
17.8023
22.2011
26.5613
30.7935
34.7768
38.364
41.3905
43.6859
45.0888
45.4611
44.7023
42.7617
39.6476
35.4317
30.2487
24.2903
17.7938
11.026
4.2643
-2.22394
-8.20092
-13.4751
-17.9132
-21.4459
-24.0673
-25.8277
-26.8205
-27.165
-26.9854
-26.3871
-25.4314
-24.1067
-22.2998
-19.7657
-16.103
-10.7398
-2.94104
8.15488
23.4613
43.8279
69.8912
101.903
139.565
181.89
227.13
272.797
315.782
352.595
379.691
393.856
392.616
374.591
339.761
289.586
226.956
155.973
81.5753
9.05103
-56.4939
-110.657
-150.181
-173.257
-179.665
-170.73
-149.11
-118.439
-82.8908
-46.6959
-13.6947
13.0405
31.4653
40.6865
40.9435
33.462
20.2079
3.57884
-13.9242
-30.0042
-42.8198
-51.1569
-54.5066
-53.0499
-47.5594
-39.2392
-29.5271
-19.8886
-11.6274
-5.73553
-2.79584
-2.94605
-5.9011
-11.0263
-17.4474
-24.1798
-30.261
-34.8672
-37.4038
-37.5598
-35.3226
-30.9559
-24.946
-17.925
-10.5837
-3.5846
2.51477
7.31915
10.6287
12.4462
12.959
12.5015
11.5025
10.4268
9.71745
9.74606
10.7761
12.9429
16.2504
20.5847
25.7394
31.4509
37.4352
43.4249
49.1986
54.6026
59.5615
64.0772
68.2194
72.107
75.8854
79.7019
83.6824
87.912
92.4222
97.186
102.12
107.094
111.947
116.506
120.605
124.099
126.881
128.887
130.092
130.503
130.147
129.049
127.217
124.624
121.202
116.843
111.414
104.779
96.8372
87.5532
76.9914
65.3369
52.9028
40.1183
27.4995
15.6042
4.97704
-3.90862
-10.7043
-15.2279
-17.4866
-17.6796
-16.1774
-13.4816
-10.17
-6.83291
-4.0093
-2.13059
-1.47835
-2.16089
-4.11096
-7.10394
-10.7934
-14.7589
-18.5596
-21.7867
-24.1092
-25.3063
-25.2865
-24.0888
-21.8706
-18.8825
-15.4355
-11.8644
-8.49214
-5.59835
-3.39567
-2.01469
-1.4985
-1.80609
-2.82336
-4.37986
-6.26916
-8.2707
-10.1711
-11.7828
-12.9595
-13.606
-13.6831
-13.2067
-12.2424
-10.8949
-9.29525
-7.58615
-5.90687
-4.38
-3.10053
-2.12864
-1.48668
-1.16028
-1.1035
-1.2469
-1.50763
-1.80008
-2.04586
-2.18196
-2.16624
-1.97994
-1.62717
-1.13185
-0.532723
0.122661
0.784172
1.40478
1.94509
2.37638
2.68201
2.85725
2.90781
2.84754
2.69552
2.47317
2.20159
1.89953
1.58198
1.25971
0.939564
0.625457
0.319992
0.0262813
-0.250275
-0.50061
-0.71129
-0.864677
-0.939975
-0.915025
-0.76859
-0.482738
-0.0449264
0.550581
1.30224
2.20178
3.23567
4.38726
5.63909
6.97493
8.38099
9.84599
11.3598
12.9111
14.4837
16.0532
17.5838
19.0268
20.3209
21.395
22.1734
22.5826
22.5593
22.0582
21.0585
19.5683
17.6253
15.2947
12.6636
9.83277
6.90716
3.98611
1.15482
-1.52183
-4.00233
-6.26819
-8.32036
-10.1732
-11.8468
-13.36
-14.723
-15.9338
-16.976
-17.8205
-18.4289
-18.7599
-18.7756
-18.4481
-17.7654
-16.7342
-15.3816
-13.7532
-11.9104
-9.92491
-7.87327
-5.83133
-3.86909
-2.04691
-0.413028
0.997381
2.16193
3.0697
3.7194
4.11734
4.27555
4.21038
3.94147
3.49125
2.88454
2.14835
1.31149
0.403954
-0.543815
-1.50194
-2.44207
-3.33826
-4.16754
-4.91011
-5.54913
-6.07023
-6.46094
-6.71031
-6.80901
-6.74997
-6.52964
-6.14966
-5.61859
-4.95323
-4.17932
-3.33108
-2.44959
-1.58006
-0.768223
-0.0562503
0.521179
0.940246
1.19027
1.2746
1.20997
1.02444
0.754132
0.439247
0.119762
-0.168582
-0.397598
-0.548914
-0.614973
-0.598738
-0.512229
-0.374143
-0.206925
-0.033693
0.124605
0.251443
0.336176
0.374587
0.368552
0.324989
0.254338
0.16888
0.081241
0.00336165
-0.0538921
-0.0804371
-0.066154
0.000161014
0.131678
0.343854
0.653892
1.07924
1.63524
2.33235
3.17333
4.15106
5.24754
6.43414
7.67345
8.92237
10.136
11.2716
12.2928
13.1714
13.8894
14.4383
14.8172
15.0306
15.0854
14.9885
14.7455
14.3615
13.842
13.1963
12.4401
11.5982
10.7063
9.80985
8.96142
8.21595
7.62401
7.22476
7.03917
7.06509
7.27483
7.61621
8.01699
8.39236
8.65452
8.72288
8.53345
8.04592
7.24736
6.15205
4.7975
3.23744
1.53301
-0.256345
-2.08079
-3.90535
-5.7119
-7.49738
-9.26883
-11.0361
-12.8034
-14.5619
-16.2826
-17.9137
-19.3782
-20.575
-21.3786
-21.6365
-21.1595
-19.7039
-16.9453
-12.4449
-5.6205
4.26791
18.0983
36.8173
61.3095
92.2068
129.656
173.08
220.984
270.86
319.247
361.955
394.467
412.475
412.469
392.297
351.601
292.049
217.302
132.726
44.8567
-39.3033
-113.06
-170.779
-208.505
-224.372
-218.758
-194.164
-154.848
-106.264
-54.3931
-5.04345
36.7825
67.3853
84.6781
88.2824
79.4156
60.5995
35.2393
7.13605
-20.0032
-42.9978
-59.52
-68.287
-69.1063
-62.7838
-50.9192
-35.6235
-19.2037
-3.85444
8.605
16.9194
20.4972
19.4168
14.3481
6.40774
-3.02734
-12.5205
-20.7635
-26.7299
-29.7775
-29.6929
-26.6769
-21.2797
-14.2976
-6.64969
0.750429
7.10865
11.839
14.6172
15.396
14.384
11.9944
8.77309
5.31677
2.19394
-0.122689
-1.30399
-1.18857
0.217468
2.76258
6.18851
10.179
14.4108
18.6011
22.5441
26.1351
29.378
32.3792
35.327
38.4625
42.0437
46.3092
51.445
57.5576
64.6575
72.6534
81.358
90.5042
99.7695
108.805
117.266
124.84
131.273
136.381
140.057
142.271
143.059
142.502
140.706
137.781
133.821
128.889
123.015
116.194
108.404
99.6284
89.8776
79.2195
67.7979
55.8444
43.6755
31.6758
20.2672
9.86767
0.846723
-6.51838
-12.0767
-15.8236
-17.9039
-18.5953
-18.277
-17.3855
-16.3645
-15.6156
-15.4561
-16.0885
-17.5861
-19.8939
-22.8458
-26.1928
-29.6397
-32.8836
-35.6504
-37.7247
-38.9695
-39.3348
-38.8559
-37.6404
-35.8496
-33.6748
-31.3136
-28.9477
-26.7263
-24.7545
-23.089
-21.7396
-20.6761
-19.838
-19.1469
-18.5183
-17.8723
-17.1418
-16.2778
-15.2521
-14.0564
-12.7004
-11.2079
-9.61236
-7.95277
-6.26989
-4.60297
-2.98742
-1.45295
-0.0224108
1.28917
2.47505
3.53691
4.48451
5.33473
6.10986
6.83512
7.53544
8.23193
8.93816
9.65696
10.3781
11.0775
11.7179
12.252
12.6269
12.7896
12.6941
12.3072
11.6139
10.6204
9.35491
7.86585
6.21709
4.48166
2.73402
1.04233
-0.538508
-1.97175
-3.24121
-4.35064
-5.32023
-6.18084
-6.96673
-7.70807
-8.42424
-9.11922
-9.77957
-10.3756
-10.8654
-11.201
-11.3365
-11.235
-10.8762
-10.2598
-9.40747
-8.36166
-7.18095
-5.93407
-4.69254
-3.52342
-2.48294
-1.61201
-0.933916
-0.454378
-0.163723
-0.0405606
-0.0562746
-0.179499
-0.379898
-0.630745
-0.910085
-1.20057
-1.48833
-1.76133
-2.00785
-2.21546
-2.3709
-2.46082
-2.47333
-2.39994
-2.2375
-1.98977
-1.66809
-1.29108
-0.883305
-0.472939
-0.0889285
0.242161
0.499094
0.668418
0.746143
0.738523
0.661896
0.541578
0.409885
0.303368
0.259414
0.312455
0.490101
0.809621
1.27518
1.87629
2.58764
3.37064
4.17632
4.94952
5.63371
6.17593
6.53137
6.66682
6.56295
6.21514
5.6329
4.83828
3.86347
2.74799
1.53592
0.273248
-0.994293
-2.22301
-3.37257
-4.40695
-5.29514
-6.01164
-6.53695
-6.85796
-6.96852
-6.86992
-6.57137
-6.09036
-5.45251
-4.69109
-3.84565
-2.96018
-2.08046
-1.25104
-0.512032
0.10394
0.57423
0.887868
1.04619
1.06232
0.959636
0.769212
0.526722
0.268983
0.0305717
-0.159173
-0.278474
-0.314599
-0.264428
-0.134157
0.0617693
0.302323
0.561986
0.813106
1.02838
1.18329
1.25845
1.24156
1.129
0.92679
0.65085
0.32643
-0.0132717
-0.329339
-0.580078
-0.724494
-0.726037
-0.556238
-0.197854
0.352871
1.08516
1.97409
2.98241
4.06382
5.16717
6.24143
7.24059
8.1281
8.88021
9.48773
9.95611
10.3037
10.5585
10.7537
10.9227
11.0941
11.288
11.5121
11.7614
12.0178
12.2529
12.4316
12.5167
12.4736
12.2758
11.9077
11.3676
10.6674
9.83182
8.89538
7.89798
6.8801
5.87759
4.91683
4.01077
3.15627
2.33309
1.50464
0.620443
-0.379798
-1.56087
-2.98577
-4.70891
-6.76924
-9.18383
-11.9426
-15.0051
-18.2993
-21.7239
-25.1535
-28.4465
-31.455
-34.0365
-36.0646
-37.4398
-38.0964
-38.0078
-37.1873
-35.6857
-33.585
-30.9897
-28.0147
-24.7693
-21.3377
-17.7521
-13.9587
-9.77609
-4.85057
1.38445
9.72986
21.2063
36.9853
58.2542
86.0114
120.811
162.489
209.925
260.901
312.106
359.326
397.823
422.868
430.352
417.405
382.901
327.77
255.065
169.741
78.1866
-12.4529
-95.0575
-163.321
-212.442
-239.624
-244.333
-228.269
-195.09
-149.903
-98.6235
-47.2715
-1.29791
34.9741
58.7371
68.8807
65.9589
51.9656
29.9605
3.60261
-23.3422
-47.4598
-66.0582
-77.4152
-80.8833
-76.8534
-66.5964
-52.013
-35.3327
-18.8032
-4.40982
6.34351
12.5713
14.0525
11.1895
4.89431
-3.57782
-12.8194
-21.4619
-28.3427
-32.6298
-33.8929
-32.1176
-27.6664
-21.196
-13.5459
-5.61344
1.76571
7.91973
12.4119
15.0755
16.0114
15.5502
14.1891
12.5116
11.1035
10.4752
11.0006
12.8796
16.1252
20.5774
25.9379
31.82
37.8069
43.5093
48.616
52.931
56.3932
59.0783
61.1808
62.9822
64.8079
66.9802
69.7724
73.3716
77.8534
83.173
89.1725
95.6021
102.155
108.505
114.353
119.454
123.65
126.881
129.175
130.641
131.429
131.703
131.599
131.196
130.492
129.393
127.719
125.221
121.616
116.627
110.026
101.686
91.609
79.9529
67.0367
53.3247
39.3921
25.875
13.4089
2.56429
-6.21237
-12.6462
-16.662
-18.3897
-18.1474
-16.4021
-13.7157
-10.6811
-7.85782
-5.71416
-4.58311
-4.63636
-5.87868
-8.16211
-11.217
-14.6951
-18.218
-21.4257
-24.0182
-25.7864
-26.629
-26.5544
-25.6696
-24.1575
-22.2475
-20.1823
-18.1882
-16.4488
-15.0877
-14.1612
-13.6594
-13.5166
-13.627
-13.865
-14.1043
-14.2357
-14.18
-13.8947
-13.3753
-12.6504
-11.7729
-10.8083
-9.82322
-8.87434
-8.00058
-7.21874
-6.52302
-5.88824
-5.27583
-4.64157
-3.94373
-3.15031
-2.2443
-1.2263
-0.114092
1.06047
2.25686
3.43248
4.54961
5.58155
6.51716
7.36311
8.14349
8.89678
9.67042
10.5138
11.47
12.5685
13.8182
15.2031
16.6808
18.1839
19.6248
20.9027
21.913
22.5576
22.7547
22.4472
21.6085
20.2456
18.3977
16.1323
13.5383
10.7169
7.77251
4.80433
1.8991
-0.872967
-3.45964
-5.82523
-7.9469
-9.80957
-11.4006
-12.7054
-13.7044
-14.3726
-14.6815
-14.6025
-14.1116
-13.1949
-11.8524
-10.1019
-7.98082
-5.54657
-2.87653
-0.0662452
2.77321
5.51927
8.0433
10.2175
11.9232
13.0593
13.5513
13.3584
12.4787
10.9516
8.85607
6.30601
3.44159
0.418841
-2.60227
-5.46971
-8.04996
-10.2364
-11.9547
-13.1656
-13.8638
-14.0752
-13.8519
-13.2658
-12.4016
-11.35
-10.201
-9.03796
-7.93322
-6.94421
-6.1112
-5.45621
-4.98324
-4.67972
-4.51912
-4.46449
-4.4727
-4.49908
-4.50202
-4.4472
-4.31086
-4.08196
-3.7628
-3.36805
-2.92233
-2.45674
-2.00452
-1.59678
-1.2585
-1.00563
-0.843302
-0.765717
-0.757375
-0.795628
-0.854087
-0.906401
-0.929839
-0.908199
-0.833633
-0.707216
-0.538229
-0.342339
-0.138999
0.0515755
0.211436
0.327633
0.394378
0.414469
0.399884
0.37149
0.357885
0.393417
0.515506
0.761497
1.16529
1.75413
2.5458
3.54661
4.75024
6.13749
7.67696
9.32632
11.0341
12.7414
14.3845
15.8961
17.2078
18.252
18.9647
19.2886
19.1759
18.5926
17.5218
15.9668
13.9531
11.5289
8.76494
5.75085
2.59155
-0.598725
-3.70296
-6.60849
-9.21382
-11.4348
-13.2097
-14.5019
-15.3018
-15.6257
-15.5129
-15.0219
-14.2239
-13.197
-12.0195
-10.7639
-9.49194
-8.25132
-7.07397
-5.97623
-4.96067
-4.01931
-3.13754
-2.2984
-1.48647
-0.691047
0.0919495
0.859244
1.60082
2.30158
2.94387
3.51035
3.98692
4.36536
4.64518
4.83473
4.95136
5.0206
5.07455
5.14957
5.28346
5.51245
5.86814
6.37481
7.04726
7.88954
8.89471
10.0456
11.3165
12.6755
14.0862
15.509
16.901
18.2144
19.3946
20.3777
21.0897
21.4477
21.3642
20.7539
19.5435
17.6823
15.1528
11.9793
8.23246
4.03021
-0.467111
-5.06625
-9.55455
-13.7159
-17.3476
-20.2752
-22.365
-23.5311
-23.7368
-22.9881
-21.3209
-18.7785
-15.3807
-11.0847
-5.73931
0.961812
9.51843
20.6395
35.2197
54.261
78.7292
109.349
146.358
189.258
236.617
285.974
333.905
376.253
408.54
426.497
426.651
406.878
366.826
308.131
234.388
150.854
63.9237
-19.5513
-93.0248
-150.98
-189.53
-206.816
-203.152
-180.909
-144.165
-98.1648
-48.672
-1.30309
39.0853
68.8746
85.9835
89.9644
81.9
64.1288
39.848
12.6499
-13.9433
-36.8918
-53.9525
-63.8645
-66.3971
-62.2673
-52.9489
-40.4076
-26.8022
-14.1917
-4.28421
1.74514
3.35218
0.632831
-5.74826
-14.693
-24.8462
-34.7867
-43.2088
-49.0735
-51.7126
-50.879
-46.7421
-39.8331
-30.953
-21.056
-11.1256
-2.0587
5.43027
10.8745
14.0853
15.1468
14.3797
12.281
9.44871
6.50303
4.01321
2.43842
2.08856
3.10758
5.479
9.05027
13.5709
18.7377
24.2405
29.8022
35.2089
40.3274
45.1088
49.5806
53.8291
57.9764
62.155
66.4857
71.0597
75.9276
81.0962
86.5319
92.1691
97.9216
103.694
109.392
114.926
120.212
125.168
129.708
133.73
137.107
139.689
141.296
141.731
140.794
138.295
134.082
128.061
120.215
110.62
99.4556
87.0047
73.6439
59.8259
46.0522
32.8378
20.6725
9.98137
1.08887
-5.80888
-10.6603
-13.5606
-14.7398
-14.5368
-13.3634
-11.6617
-9.85947
-8.32953
-7.35671
-7.11601
-7.6639
-8.94296
-10.7986
-13.0051
-15.2977
-17.4064
-19.0879
-20.1518
-20.4795
-20.0321
-18.8507
-17.0457
-14.7803
-12.2494
-9.6556
-7.18764
-5.00117
-3.20546
-1.85642
-0.956534
-0.460969
-0.288819
-0.337505
-0.498384
-0.671491
-0.777615
-0.766392
-0.619688
-0.350211
0.00407083
0.38859
0.742451
1.00873
1.14332
1.12119
0.939346
0.616373
0.1889
-0.294231
-0.779041
-1.21358
-1.55414
-1.76967
-1.84391
-1.77535
-1.57504
-1.26307
-0.864285
-0.404021
0.095636
0.618525
1.15591
1.70678
2.27723
2.87908
3.528
4.24127
5.03521
5.92209
6.9068
7.98339
9.13187
10.3161
11.4833
12.5652
13.4822
14.1491
14.4826
14.41
13.8771
12.8555
11.3472
9.38726
7.04208
4.40582
1.59336
-1.26847
-4.05076
-6.63246
-8.90931
-10.801
-12.2554
-13.2509
-13.7943
-13.9174
-13.671
-13.1179
-12.3256
-11.3592
-10.2767
-9.12478
-7.93737
-6.73571
-5.53023
-4.32348
-3.11375
-1.89873
-0.678765
0.540772
1.74811
2.9248
4.0465
5.08442
6.00733
6.78383
7.38452
7.78402
7.96265
7.90772
7.61435
7.08594
6.33418
5.37879
4.24697
2.9725
1.59462
0.156612
-1.29592
-2.71707
-4.06283
-5.29332
-6.37498
-7.28221
-7.99845
-8.51632
-8.83682
-8.96777
-8.92166
-8.7135
-8.35895
-7.87315
-7.27022
-6.56354
-5.76635
-4.89243
-3.95661
-2.97479
-1.96367
-0.940005
0.0801745
1.08225
2.05338
2.98243
3.85933
4.67414
5.41581
6.07121
6.62436
7.05638
7.34604
7.4711
7.41014
7.1449
6.66268
5.95872
5.03819
3.91748
2.62477
1.19965
-0.308379
-1.84218
-3.34018
-4.74001
-5.98236
-7.01465
-7.79411
-8.29015
-8.48569
-8.37749
-7.97553
-7.3016
-6.38714
-5.27067
-3.99487
-2.60365
-1.13932
0.359795
1.86102
3.33813
4.77118
6.14522
7.44832
8.66902
9.79392
10.8058
11.6828
12.3994
12.9287
13.2455
13.3311
13.1765
12.7855
12.1749
11.3734
10.4181
9.34938
8.20528
7.01645
5.80237
4.56978
3.31371
2.02088
0.675192
-0.735839
-2.21448
-3.74733
-5.30199
-6.82641
-8.25142
-9.49606
-10.4752
-11.1085
-11.3291
-11.0917
-10.3776
-9.19778
-7.59192
-5.62491
-3.38083
-0.955256
1.55295
4.04951
6.45141
8.69194
10.7237
12.5195
14.0719
15.3906
16.4995
17.4323
18.229
18.9309
19.577
20.1999
20.8222
21.4538
22.0891
22.7058
23.2637
23.7058
23.9598
23.9414
23.5597
22.7233
21.3492
19.3718
16.753
13.4903
9.62378
5.23851
0.462881
-4.53824
-9.57488
-14.4469
-18.961
-22.9471
-26.2731
-28.8548
-30.6608
-31.711
-32.0679
-31.8234
-31.0773
-29.9119
-28.3597
-26.3659
-23.7463
-20.1445
-14.9959
-7.50822
3.32533
18.6646
39.6999
67.4643
102.591
145.046
193.879
247.06
301.438
352.888
396.638
427.771
441.826
435.437
406.885
356.486
286.739
202.19
109.023
14.4323
-74.1614
-149.925
-207.363
-242.904
-255.24
-245.397
-216.522
-173.433
-121.995
-68.4051
-18.4878
22.9224
52.4364
68.3624
70.7377
61.1543
42.4169
18.0883
-8.0115
-32.2891
-51.7855
-64.4663
-69.3702
-66.6109
-57.248
-43.0541
-26.2196
-9.03515
6.40326
18.4355
25.9984
28.6951
26.7751
21.0344
12.6588
3.03438
-6.44663
-14.5609
-20.389
-23.398
-23.4674
-20.8601
-16.1491
-10.1119
-3.61118
2.52437
7.60239
11.1433
12.9233
12.9827
11.6007
9.24451
6.49929
3.98978
2.30316
1.92203
3.17456
6.20638
10.9758
17.2714
24.748
32.976
41.4975
49.8809
57.7693
64.9163
71.2052
76.6514
81.3872
85.6326
89.6558
93.7303
98.092
102.905
108.236
114.048
120.202
126.475
132.592
138.258
143.193
147.165
150.011
151.654
152.096
151.413
149.73
147.195
143.95
140.104
135.715
130.783
125.249
119.017
111.969
104.002
95.0535
85.1322
74.337
62.866
51.0131
39.1501
27.6975
17.0863
7.71483
-0.0929363
-6.12356
-10.299
-12.6874
-13.4973
-13.0566
-11.7776
-10.1137
-8.51126
-7.36398
-6.97459
-7.5282
-9.08034
-11.5606
-14.7903
-18.5119
-22.4251
-26.2246
-29.6353
-32.4395
-34.4936
-35.7344
-36.1733
-35.8827
-34.9771
-33.5909
-31.8592
-29.9012
-27.8101
-25.6487
-23.4515
-21.2307
-18.9856
-16.7124
-14.4132
-12.1026
-9.81092
-7.5834
-5.47669
-3.55242
-1.86952
-0.476547
0.594947
1.33482
1.75599
1.89315
1.79867
1.53637
1.17409
0.775952
0.395482
0.070414
-0.180132
-0.355822
-0.472687
-0.558536
-0.646939
-0.770699
-0.955776
-1.21654
-1.55299
-1.95028
-2.38048
-2.80627
-3.18594
-3.47886
-3.65083
-3.6784
-3.55183
-3.2762
-2.8708
-2.36682
-1.80374
-1.22494
-0.673121
-0.185963
0.207386
0.488668
0.651553
0.701302
0.653204
0.530062
0.359073
0.16852
-0.0153434
-0.170874
-0.282846
-0.343342
-0.351727
-0.313797
-0.240271
-0.144899
-0.0424186
0.0533601
0.131157
0.183348
0.206561
0.201716
0.17357
0.129839
0.0800133
0.0339839
0.000647108
-0.0133685
-0.00468955
0.0262397
0.0751255
0.134367
0.194142
0.243896
0.274031
0.277507
0.251067
0.195842
0.117236
0.0240945
-0.0726507
-0.161594
-0.232418
-0.277127
-0.290793
-0.271741
-0.221251
-0.142919
-0.0418598
0.0760415
0.204719
0.33826
0.470998
0.597423
0.71203
0.809195
0.883191
0.928389
0.939649
0.912845
0.845431
0.736939
0.589323
0.407086
0.19718
-0.031285
-0.267507
-0.499581
-0.715196
-0.902414
-1.0505
-1.15075
-1.19728
-1.18764
-1.12322
-1.00929
-0.854755
-0.671496
-0.473366
-0.274983
-0.090397
0.0682579
0.191995
0.276037
0.320651
0.331676
0.320661
0.304447
0.30407
0.342877
0.443887
0.626599
0.903589
1.27741
1.73835
2.26361
2.81817
3.35756
3.83232
4.19362
4.39937
4.41987
4.24227
3.87299
3.33768
2.67861
1.94978
1.21037
0.51734
-0.0816263
-0.553886
-0.885433
-1.08181
-1.16622
-1.17524
-1.15273
-1.14301
-1.18425
-1.30309
-1.51108
-1.80353
-2.16057
-2.55036
-2.93368
-3.26926
-3.51908
-3.65292
-3.65166
-3.50893
-3.23112
-2.83584
-2.3491
-1.80181
-1.22599
-0.651246
-0.101936
0.404727
0.859417
1.26034
1.61188
1.92254
2.20251
2.46117
2.70494
2.9358
3.15057
3.34111
3.49554
3.60011
3.64176
3.61099
3.50467
3.32853
3.09895
2.8436
2.60101
2.4186
2.34962
2.44897
2.76851
3.35242
4.23309
5.42827
6.93987
8.75442
10.8453
13.1758
15.7034
18.3825
21.1669
24.0099
26.8634
29.6741
32.3804
34.908
37.1675
39.0542
40.4504
41.2313
41.2748
40.4734
38.7481
36.0615
32.4298
27.9296
22.6996
16.9357
10.8794
4.80048
-1.02405
-6.33229
-10.8986
-14.5507
-17.1796
-18.7422
-19.2526
-18.7632
-17.3336
-14.9888
-11.6663
-7.15843
-1.05644
7.29103
18.7874
34.5468
55.7855
83.6378
118.904
161.763
211.486
266.232
322.971
377.596
425.232
460.743
479.36
477.353
452.639
405.216
337.354
253.488
159.819
63.6741
-27.3026
-106
-166.635
-205.374
-220.711
-213.558
-187.034
-146.017
-96.4931
-44.8244
2.99253
41.9716
68.6196
81.2051
79.7998
66.1015
43.0806
14.5061
-15.5804
-43.3739
-65.7385
-80.5167
-86.6901
-84.3856
-74.7412
-59.6622
-41.5075
-22.7527
-5.67365
7.91327
16.8263
20.5969
19.4519
14.2102
6.1174
-3.35616
-12.7239
-20.672
-26.2069
-28.7477
-28.1566
-24.711
-19.0262
-11.9426
-4.39677
2.70731
8.61041
12.7806
14.9592
15.1681
13.6805
10.9638
7.60306
4.21781
1.38342
-0.43392
-0.921183
0.0616456
2.48587
6.17922
10.8662
16.2168
21.896
27.6082
33.1311
38.3359
43.193
47.7644
52.1846
56.6339
61.3075
66.3852
72.0046
78.2404
85.0924
92.4824
100.259
108.212
116.089
123.616
130.519
136.546
141.481
145.154
147.449
148.304
147.706
145.682
142.287
137.595
131.686
124.64
116.537
107.459
97.5005
86.7801
75.4526
63.7203
51.8361
40.1
28.8451
18.4153
9.13614
1.2831
-4.94936
-9.47183
-12.3141
-13.6266
-13.6674
-12.778
-11.3478
-9.77471
-8.42428
-7.5941
-7.48675
-8.19474
-9.69867
-11.8783
-14.5343
-17.4181
-20.2647
-22.8248
-24.893
-26.3276
-27.0615
-27.1029
-26.5275
-25.4633
-24.0708
-22.5217
-20.9787
-19.5783
-18.4187
-17.5538
-16.9926
-16.7044
-16.6272
-16.6791
-16.7707
-16.8158
-16.7408
-16.4911
-16.0341
-15.3589
-14.4739
-13.4024
-12.1765
-10.8319
-9.40241
-7.91679
-6.39626
-4.8542
-3.29732
-1.72796
-0.147005
1.44307
3.03562
4.61805
6.17099
7.66863
9.07986
10.3701
11.5038
12.4464
13.167
13.6403
13.8476
13.778
13.4284
12.8034
11.915
10.7814
9.42722
7.88222
6.18133
4.36406
2.47389
0.557312
-1.33774
-3.16396
-4.87727
-6.4396
-7.82159
-9.00457
-9.98167
-10.7574
-11.3458
-11.7673
-12.0441
-12.1954
-12.2328
-12.1563
-11.9529
-11.5963
-11.0502
-10.2725
-9.22258
-7.86797
-6.19181
-4.19847
-1.91715
0.597262
3.26633
5.99294
8.6684
11.1807
13.4235
15.3035
16.7478
17.7078
18.1615
18.1132
17.5911
16.6437
15.3342
13.7351
11.9221
9.96934
7.94375
5.90159
3.88532
1.92193
0.0226593
-1.81565
-3.60757
-5.37452
-7.13878
-8.91681
-10.7125
-12.5111
-14.2756
-15.945
-17.4371
-18.6542
-19.4926
-19.8546
-19.6617
-18.8666
-17.4635
-15.493
-13.0424
-10.24
-7.24362
-4.22531
-1.35387
1.2227
3.39224
5.0889
6.29766
7.05231
7.42718
7.52403
7.45585
7.3301
7.23364
7.2214
7.31023
7.47867
7.67226
7.81356
7.81519
7.59385
7.08337
6.24479
5.07227
3.59413
1.86922
-0.0205732
-1.98005
-3.91101
-5.72131
-7.33134
-8.6772
-9.71068
-10.3966
-10.7092
-10.6283
-10.1371
-9.22249
-7.87758
-6.10623
-3.92879
-1.38753
1.44982
4.48923
7.6133
10.6877
13.5708
16.1248
18.2277
19.7837
20.7309
21.0456
20.7423
19.8699
18.505
16.7422
14.6845
12.4334
10.0805
7.70192
5.35511
3.07822
0.892165
-1.19567
-3.18668
-5.08601
-6.89789
-8.62185
-10.2502
-11.7666
-13.1467
-14.3592
-15.3681
-16.1362
-16.6285
-16.8152
-16.6757
-16.2004
-15.3929
-14.271
-12.8661
-11.2218
-9.39095
-7.43237
-5.40619
-3.36953
-1.37229
0.546241
2.35963
4.05502
5.63235
7.102
8.48142
9.79103
11.05
12.2729
13.4664
14.6287
15.7494
16.8107
17.7911
18.6678
19.4209
20.0367
20.5092
20.8417
21.0457
21.1394
21.1442
21.0806
20.9639
20.8001
20.582
20.2882
19.8824
19.3167
18.5357
17.4833
16.1104
14.3825
12.2865
9.83622
7.0743
4.07225
0.926708
-2.24676
-5.32191
-8.17127
-10.6757
-12.7329
-14.2646
-15.2202
-15.5782
-15.3436
-14.5407
-13.2019
-11.3508
-8.9776
-6.00722
-2.25943
2.59627
9.0833
17.9459
30.145
46.8034
69.085
98.0031
134.171
177.522
227.06
280.685
335.162
386.276
429.171
458.871
470.897
461.909
430.273
376.439
303.082
214.954
118.455
20.9774
-69.8899
-147.198
-205.401
-240.942
-252.597
-241.533
-211.079
-166.26
-113.15
-58.1421
-7.21982
34.6692
64.079
79.3192
80.4842
69.271
48.6249
22.2698
-5.81026
-31.8707
-52.8293
-66.5677
-72.0868
-69.5109
-59.9548
-45.2837
-27.8056
-9.94092
6.08779
18.5106
26.1828
28.6632
26.197
19.6167
10.1801
-0.627724
-11.3
-20.4954
-27.1861
-30.7517
-31.0138
-28.2123
-22.9317
-15.9933
-8.32636
-0.840298
5.69013
10.7109
13.939
15.3739
15.2713
14.0869
12.3995
10.8249
9.93288
10.1781
11.8516
15.058
19.7196
25.603
32.3635
39.5998
46.91
53.9428
60.4357
66.2389
71.3212
75.7599
79.7176
83.4102
87.0706
90.914
95.1084
99.7534
104.87
110.402
116.222
122.155
127.994
133.528
138.559
142.919
146.483
149.167
150.928
151.75
151.638
150.598
148.632
145.726
141.848
136.952
130.983
123.892
115.649
106.262
95.7954
84.3821
72.2318
59.6303
46.9278
34.5164
22.7997
12.1555
2.89806
-4.75528
-10.7084
-14.9973
-17.786
-19.3468
-20.0288
-20.2164
-20.2863
-20.5651
-21.296
-22.6171
-24.553
-27.0216
-29.8538
-32.8222
-35.6749
-38.1704
-40.1077
-41.349
-41.8323
-41.5731
-40.6565
-39.22
-37.4322
-35.4685
-33.4888
-31.6182
-29.9343
-28.4617
-27.173
-25.9968
-24.8312
-23.5599
-22.0699
-20.2682
-18.0951
-15.5333
-12.6111
-9.4004
-6.00916
-2.56993
0.774155
3.88387
6.6373
8.94046
10.734
11.9955
12.7375
13.0018
12.8513
12.3605
11.6062
10.6591
9.57831
8.40798
7.1765
5.89826
4.57698
3.2099
1.79206
0.320101
-1.20487
-2.77556
-4.37787
-5.99104
-7.58846
-9.13874
-10.6069
-11.9552
-13.1448
-14.1363
-14.8914
-15.3748
-15.5567
-15.4153
-14.9399
-14.1336
-13.0151
-11.6198
-9.99897
-8.21738
-6.34931
-4.47344
-2.66688
-0.999189
0.472928
1.70958
2.68983
3.41174
3.89047
4.15459
4.24139
4.19155
4.04419
3.83274
3.58212
3.30767
3.01568
2.70541
2.37204
2.01019
1.61717
1.19553
0.754477
0.309913
-0.116876
-0.501569
-0.819811
-1.05026
-1.17717
-1.19196
-1.09359
-0.887619
-0.584137
-0.195034
0.268912
0.80056
1.39808
2.06549
2.81189
3.64973
4.59218
5.65033
6.83053
8.13253
9.54844
11.0629
12.6543
14.2959
15.9583
17.6102
19.2198
20.7543
22.1792
23.4569
24.545
25.3948
25.9494
26.143
25.9015
25.1442
23.7886
21.757
18.9864
15.4392
11.1149
6.05973
0.373433
-5.78939
-12.2234
-18.6827
-24.8973
-30.5923
-35.5103
-39.4324
-42.1973
-43.7144
-43.9713
-43.0332
-41.0364
-38.1744
-34.6801
-30.8056
-26.8007
-22.8932
-19.2732
-16.0803
-13.398
-11.2521
-9.61528
-8.41606
-7.55057
-6.89693
-6.32995
-5.73518
-5.02093
-4.12729
-3.03148
-1.74904
-0.331004
1.14268
2.57258
3.85109
4.87435
5.55336
5.82315
5.64894
5.02854
3.99101
2.59172
0.904917
-0.985018
-2.99217
-5.03623
-7.0472
-8.96729
-10.7501
-12.3579
-13.7577
-14.9175
-15.8039
-16.3819
-16.6164
-16.4761
-15.94
-15.0026
-13.6798
-12.0128
-10.0681
-7.93594
-5.72391
-3.54882
-1.52612
0.241095
1.67243
2.71837
3.3653
3.63661
3.58956
3.30842
2.89438
2.45381
2.08598
1.87205
1.8666
2.0927
2.54114
3.1738
3.93058
4.73893
5.52472
6.22291
6.78661
7.19338
7.4478
7.58016
7.64125
7.69418
7.8043
8.02857
8.40603
8.95054
9.64703
10.4517
11.2962
12.0956
12.7582
13.1968
13.3399
13.1395
12.5774
11.6663
10.4478
8.98617
7.36004
5.65192
3.93845
2.28183
0.723731
-0.717532
-2.04654
-3.28735
-4.47774
-5.66168
-6.88053
-8.16285
-9.51237
-10.8933
-12.2117
-13.2933
-13.8568
-13.4862
-11.6072
-7.47517
-0.185885
11.2774
27.9512
50.7472
80.2616
116.558
158.956
205.876
254.776
302.236
344.19
376.32
394.552
395.596
377.46
339.831
284.279
214.219
134.634
51.5871
-28.4192
-99.1533
-155.336
-193.208
-210.906
-208.615
-188.465
-154.211
-110.738
-63.461
-17.6916
21.9335
51.9114
70.166
76.1503
70.7626
56.101
35.098
11.091
-12.6146
-33.1355
-48.3121
-56.8918
-58.5841
-53.9938
-44.4502
-31.7666
-17.9634
-4.9939
5.49326
12.3312
14.9341
13.3146
8.02518
0.0391796
-9.40959
-19.0032
-27.5092
-33.9241
-37.5739
-38.1663
-35.7907
-30.8724
-24.0905
-16.274
-8.28847
-0.930722
5.15899
9.55728
12.0863
12.8105
12.0048
10.1015
7.62373
5.11507
3.07449
1.90347
1.87056
3.09569
5.55402
9.09676
13.4844
18.4276
23.6288
28.8217
33.8016
38.4457
42.7217
46.6834
50.4564
54.2154
58.1561
62.4656
67.2952
72.7382
78.815
85.4679
92.5651
99.9131
107.277
114.402
121.041
126.975
132.028
136.082
139.074
140.99
141.851
141.692
140.538
138.39
135.206
130.904
125.37
118.479
110.132
100.289
89.0078
76.4648
62.9717
48.9665
34.9879
21.6314
9.49325
-0.891494
-9.10758
-14.9076
-18.2421
-19.2672
-18.3286
-15.9235
-12.6451
-9.11709
-5.92629
-3.56151
-2.3664
-2.51128
-3.98652
-6.61725
-10.0963
-14.0303
-17.9923
-21.5735
-24.4294
-26.313
-27.0939
-26.7617
-25.4147
-23.2373
-20.4695
-17.3733
-14.2012
-11.1694
-8.43904
-6.1068
-4.20461
-2.70734
-1.54638
-0.626689
0.155362
0.89563
1.66919
2.5218
3.46621
4.48322
5.52651
6.53034
7.41868
8.1147
8.54962
8.66993
8.44273
7.85876
6.93313
5.70395
4.2291
2.58153
0.84346
-0.900066
-2.56772
-4.08812
-5.40516
-6.48196
-7.303
-7.8742
-8.22086
-8.38371
-8.4134
-8.36415
-8.28723
-8.22508
-8.20689
-8.24594
-8.33932
-8.46955
-8.60822
-8.72072
-8.77152
-8.72917
-8.57039
-8.2828
-7.86598
-7.33094
-6.69825
-5.99513
-5.25219
-4.50012
-3.76684
-3.07545
-2.44306
-1.88044
-1.39258
-0.979609
-0.638122
-0.362509
-0.146122
0.0178421
0.135807
0.213607
0.256544
0.269606
0.257733
0.226041
0.179926
0.125013
0.0669657
0.0111676
-0.037645
-0.0757468
-0.100713
-0.111587
-0.108887
-0.0944565
-0.0711366
-0.042303
-0.0112805
0.0193049
0.0481471
0.0757287
0.104496
0.138627
0.183344
0.243856
0.324094
0.425521
0.546286
0.680986
0.821143
0.956408
1.07631
1.17224
1.23928
1.27749
1.29222
1.29341
1.2937
1.30581
1.3394
1.39827
1.47825
1.56641
1.64186
1.67816
1.64699
1.52267
1.28664
0.931314
0.462581
-0.0995549
-0.722288
-1.36317
-1.97465
-2.50944
-2.92579
-3.19221
-3.29083
-3.21911
-2.98976
-2.62887
-2.17271
-1.66353
-1.14496
-0.657571
-0.235105
0.0982998
0.329596
0.457026
0.489127
0.442782
0.340671
0.208453
0.0720039
-0.0450439
-0.123309
-0.149126
-0.115453
-0.0222132
0.123872
0.309946
0.518108
0.726909
0.913189
1.0542
1.12988
1.1251
1.03165
0.849685
0.588336
0.265335
-0.0944077
-0.46119
-0.803591
-1.09188
-1.3013
-1.41482
-1.42499
-1.33466
-1.15649
-0.911275
-0.625473
-0.328059
-0.0472785
0.192387
0.372691
0.483277
0.522412
0.496812
0.420669
0.314087
0.201149
0.107841
0.0599945
0.0813914
0.19207
0.406869
0.734215
1.17517
1.72279
2.36184
3.06903
3.81385
4.56007
5.26812
5.89811
6.41346
6.78476
6.99348
7.03508
6.92099
6.67919
6.35307
5.99857
5.67977
5.4633
5.41214
5.57971
6.00466
6.70749
7.68917
8.93214
10.4036
12.0603
13.8544
15.7386
17.6699
19.6112
21.5304
23.396
25.1723
26.814
28.2617
29.4408
30.2629
30.6323
30.4547
29.649
28.1587
25.9629
23.0839
19.5906
15.5971
11.256
6.74822
2.26842
-1.98989
-5.84958
-9.16298
-11.8216
-13.7617
-14.9645
-15.4519
-15.2767
-14.5072
-13.2065
-11.405
-9.06601
-6.04595
-2.05311
3.38838
10.9572
21.5217
36.081
55.6481
81.076
112.838
150.796
193.99
240.515
287.517
331.351
367.894
392.998
403.017
395.34
368.837
324.143
263.727
191.729
113.564
35.351
-36.7516
-97.2307
-141.82
-167.944
-174.955
-164.131
-138.449
-102.167
-60.2824
-17.9287
20.1995
50.3341
69.9762
78.0642
74.9596
62.267
42.5247
18.8132
-5.66316
-27.9686
-45.7569
-57.4897
-62.535
-61.1457
-54.3329
-43.6596
-30.9878
-18.2159
-7.03777
1.24772
5.85857
6.57506
3.71063
-1.98064
-9.44216
-17.477
-24.9116
-30.7409
-34.2387
-35.0234
-33.0748
-28.7052
-22.4923
-15.186
-7.60216
-0.518552
5.41583
9.74734
12.2549
12.9562
12.084
10.0404
7.33402
4.5113
2.09012
0.503045
0.0565505
0.909171
3.06932
6.41107
10.7041
15.6533
20.9419
26.2732
31.4065
36.1833
40.5405
44.5128
48.2211
51.8521
55.63
59.7842
64.5179
69.9788
76.2384
83.2786
90.9904
99.1814
107.593
115.926
123.866
131.112
137.401
142.528
146.355
148.809
149.877
149.59
148
145.163
141.121
135.892
129.472
121.846
113.004
102.969
91.8179
79.7089
66.888
53.6905
40.5254
27.8458
16.109
5.73136
-2.9568
-9.74797
-14.5815
-17.5511
-18.8932
-18.9596
-18.1762
-16.9939
-15.8385
-15.0653
-14.9245
-15.5408
-16.9094
-18.9073
-21.3184
-23.8681
-26.2619
-28.224
-29.53
-30.0309
-29.6661
-28.464
-26.5323
-24.0395
-21.1908
-18.2028
-15.2784
-12.5878
-10.2543
-8.34799
-6.88719
-5.84498
-5.16097
-4.7552
-4.54231
-4.44401
-4.39838
-4.36509
-4.32633
-4.28369
-4.25187
-4.25042
-4.29489
-4.38872
-4.51723
-4.64459
-4.71432
-4.65336
-4.37914
-3.80896
-2.87018
-1.51009
0.295853
2.53859
5.17335
8.12122
11.274
14.5022
17.6643
20.6175
23.2282
25.3804
26.9836
27.9773
28.3328
28.0532
27.1699
25.7385
23.8322
21.5351
18.936
16.1226
13.1768
10.1719
7.17136
4.22867
1.38867
-1.3109
-3.8376
-6.16286
-8.26117
-10.11
-11.6901
-12.987
-13.9917
-14.7017
-15.122
-15.2643
-15.147
-14.7935
-14.2302
-13.4843
-12.5823
-11.5478
-10.4005
-9.15556
-7.82386
-6.41295
-4.92857
-3.37661
-1.76529
-0.107303
1.57847
3.26575
4.92054
6.50167
7.96246
9.2533
10.3249
11.1324
11.6389
11.8193
11.663
11.1756
10.3786
9.3081
8.01202
6.54599
4.96872
3.33745
1.70386
0.11107
-1.40812
-2.83151
-4.14664
-5.34886
-6.43883
-7.41989
-8.29556
-9.06755
-9.73452
-10.2914
-10.7298
-11.0384
-11.2042
-11.2139
-11.055
-10.7176
-10.1951
-9.48535
-8.59173
-7.5231
-6.29392
-4.9237
-3.43581
-1.85591
-0.210019
1.47735
3.18479
4.89482
6.59375
8.27052
9.91454
11.5129
13.0475
14.4925
15.8127
16.9638
17.8938
18.5475
18.8709
18.8181
18.3577
17.4784
16.1929
14.5392
12.5797
10.3965
8.08481
5.74445
3.47084
1.34646
-0.565953
-2.22752
-3.62424
-4.7646
-5.67435
-6.38914
-6.94623
-7.37646
-7.69778
-7.91124
-7.99992
-7.93101
-7.66052
-7.1398
-6.32292
-5.17378
-3.67209
-1.81766
0.36708
2.83632
5.52156
8.3335
11.1651
13.8957
16.3968
18.5384
20.1976
21.2671
21.6635
21.3362
20.2722
18.5
16.0883
13.1428
9.79752
6.20477
2.52266
-1.09747
-4.52256
-7.64698
-10.3983
-12.7388
-14.6639
-16.1958
-17.3761
-18.2559
-18.8864
-19.3114
-19.5606
-19.6469
-19.5666
-19.3012
-18.823
-18.1008
-17.1065
-15.8218
-14.2426
-12.3823
-10.2726
-7.96231
-5.51342
-2.99638
-0.483892
1.95529
4.26204
6.39133
8.31503
10.0228
11.5212
12.8308
13.9823
15.0119
15.9563
16.8476
17.7097
18.5555
19.385
20.1861
20.9362
21.6053
22.1613
22.5744
22.8233
22.8983
22.8038
22.5581
22.189
21.7281
21.2023
20.6253
19.9894
19.2614
18.3809
17.2655
15.8191
13.9456
11.5636
8.62191
5.11206
1.07626
-3.39081
-8.14656
-13.011
-17.7814
-22.2492
-26.2169
-29.5129
-32.0032
-33.599
-34.2593
-33.9902
-32.8391
-30.8859
-28.229
-24.9669
-21.1734
-16.8666
-11.973
-6.28992
0.548177
9.09005
20.0637
34.3361
52.8266
76.3701
105.536
140.418
180.44
224.196
269.397
312.935
351.105
379.954
395.737
395.42
377.142
340.577
287.123
219.878
143.401
63.2717
-14.4872
-84.0549
-140.441
-180.015
-200.865
-202.956
-188.058
-159.471
-121.582
-79.3286
-37.6187
-0.800059
27.7728
46.0228
53.2646
50.147
38.4443
20.7354
0.0174141
-20.6935
-38.7235
-52.0264
-59.3643
-60.3721
-55.5088
-45.9145
-33.1972
-19.1854
-5.67828
5.7738
14.036
18.4867
19.0416
16.1087
10.4872
3.22774
-4.52389
-11.6788
-17.3346
-20.869
-21.9885
-20.7316
-17.4307
-12.6409
-7.04771
-1.3678
3.74513
7.77855
10.4153
11.56
11.3368
10.0619
8.19538
6.27987
4.87299
4.48223
5.50852
8.20451
12.6513
18.7552
26.2645
34.8024
43.9128
53.1132
61.9464
70.029
77.0867
82.977
87.6949
91.3619
94.2021
96.5065
98.5933
100.766
103.279
106.307
109.93
114.13
118.799
123.753
128.76
133.566
137.919
141.594
144.411
146.236
146.993
146.647
145.202
142.685
139.132
134.583
129.069
122.617
115.25
106.997
97.9029
88.0429
77.5339
66.5434
55.2924
44.0507
33.1236
22.831
13.4797
5.33277
-1.4196
-6.68422
-10.4793
-12.9367
-14.2906
-14.8537
-14.9838
-15.0442
-15.3645
-16.2054
-17.7326
-20.0031
-22.9641
-26.4657
-30.2829
-34.1464
-37.7748
-40.9074
-43.3315
-44.9023
-45.5536
-45.2997
-44.227
-42.48
-40.2408
-37.7073
-35.0709
-32.4972
-30.1109
-27.9865
-26.1451
-24.5575
-23.152
-21.826
-20.4603
-18.9344
-17.14
-14.9939
-12.4479
-9.49431
-6.16873
-2.54793
1.25578
5.10369
8.84232
12.3166
15.3833
17.923
19.8498
21.1172
21.7193
21.6878
21.0843
19.99
18.4938
16.6807
14.622
12.3692
9.95184
7.37902
4.64545
1.73968
-1.34635
-4.60784
-8.01951
-11.5307
-15.0639
-18.5172
-21.7703
-24.6933
-27.1571
-29.0451
-30.2639
-30.7521
-30.4868
-29.4861
-27.8087
-25.549
-22.8297
-19.7919
-16.5843
-13.3518
-10.226
-7.31639
-4.70574
-2.44693
-0.563543
0.947254
2.10974
2.9634
3.55622
3.93822
4.15605
4.24887
4.246
4.16613
4.01807
3.80259
3.51499
3.14807
2.69496
2.15169
1.51919
0.80457
0.021869
-0.808012
-1.65788
-2.49541
-3.28474
-3.98858
-4.57064
-4.99834
-5.24568
-5.29587
-5.14359
-4.79632
-4.27462
-3.61099
-2.84729
-2.03088
-1.20983
-0.427677
0.281453
0.896855
1.41366
1.84328
2.2116
2.55517
2.9156
3.33293
3.8388
4.45038
5.16594
5.96285
6.79839
7.61337
8.33829
8.90118
9.23613
9.29136
9.03571
8.4626
7.59102
6.46337
5.14053
3.69484
2.20212
0.733729
-0.650271
-1.90586
-3.00732
-3.94684
-4.73173
-5.37992
-5.9146
-6.35879
-6.73074
-7.04055
-7.28825
-7.46333
-7.5455
-7.50646
-7.31242
-6.92709
-6.3151
-5.4455
-4.29527
-2.8525
-1.11918
0.886896
3.13111
5.56221
8.1137
10.7066
13.253
15.6611
17.8399
19.7048
21.1828
22.2169
22.77
22.8272
22.3975
21.5126
20.2255
18.6071
16.7414
14.7197
12.6349
10.5749
8.61746
6.82556
5.24448
3.90063
2.8021
1.94092
1.29657
0.840241
0.53938
0.361726
0.278527
0.266524
0.308587
0.393107
0.512392
0.660505
0.830994
1.01501
1.20016
1.37038
1.50675
1.58918
1.59861
1.51918
1.34008
1.05669
0.670819
0.189989
-0.373918
-1.00646
-1.69247
-2.4176
-3.16929
-3.93721
-4.71306
-5.49012
-6.26259
-7.02515
-7.7728
-8.50111
-9.2068
-9.88852
-10.5475
-11.1881
-11.817
-12.4424
-13.072
-13.7093
-14.351
-14.9832
-15.5787
-16.0961
-16.4808
-16.6674
-16.5861
-16.169
-15.3586
-14.1154
-12.4234
-10.2943
-7.76699
-4.90459
-1.78785
1.49325
4.84885
8.19807
11.4761
14.6384
17.6622
20.5441
23.2962
25.939
28.4952
30.9822
33.4055
35.753
37.9896
40.0532
41.8529
43.27
44.1638
44.3816
43.7742
42.2147
39.6192
35.965
31.3049
25.7732
19.5826
13.011
6.37875
0.0204788
-5.74692
-10.6546
-14.5069
-17.1984
-18.7199
-19.1532
-18.6554
-17.4335
-15.7124
-13.6978
-11.5356
-9.27104
-6.80742
-3.86831
0.0331381
5.61073
13.7978
25.7039
42.5232
65.3886
95.1721
132.249
176.26
225.908
278.856
331.756
380.449
420.332
446.858
456.113
445.378
413.599
361.662
292.449
210.624
122.189
33.8558
-47.681
-116.473
-167.955
-199.404
-210.17
-201.661
-177.077
-140.958
-98.599
-55.4083
-16.3035
14.7962
35.321
44.2149
41.9088
30.1199
11.5185
-10.6885
-33.1978
-53.0191
-67.8052
-76.0725
-77.2928
-71.8606
-60.9492
-46.2869
-29.8873
-13.7721
0.278424
10.92
17.3648
19.4209
17.4534
12.2813
5.02819
-3.0495
-10.7327
-16.988
-21.0774
-22.6198
-21.6014
-18.3395
-13.4075
-7.53586
-1.50274
3.97068
8.30747
11.1359
12.3188
11.9509
10.3274
7.89044
5.16272
2.67712
0.912083
0.240097
0.894461
2.95669
6.36399
10.9339
16.4008
22.459
28.8058
35.1793
41.3863
47.3192
52.9585
58.3645
63.6587
68.9988
74.5509
80.4628
86.8409
93.7336
101.122
108.92
116.981
125.107
133.07
140.631
147.552
153.62
158.657
162.526
165.138
166.449
166.451
165.167
162.636
158.898
153.987
147.92
140.699
132.317
122.768
112.073
100.299
87.5807
74.1362
60.2705
46.3677
32.8695
20.242
8.93394
-0.666849
-8.27403
-13.7342
-17.0445
-18.3546
-17.9508
-16.2264
-13.6401
-10.6691
-7.76109
-5.29308
-3.53895
-2.65116
-2.65693
-3.46854
-4.9057
-6.72621
-8.66082
-10.4477
-11.8624
-12.7408
-12.9918
-12.6011
-11.624
-10.1723
-8.39502
-6.45795
-4.52423
-2.73878
-1.21816
-0.0462746
0.72471
1.06996
0.986202
0.486556
-0.40246
-1.64133
-3.17573
-4.93369
-6.82352
-8.73383
-10.5371
-12.097
-13.2787
-13.9619
-14.0537
-13.4999
-12.2928
-10.4749
-8.13653
-5.4087
-2.45172
0.559424
3.45073
6.06444
8.27209
9.98415
11.1554
11.7858
11.9167
11.6236
11.0059
10.1747
9.24101
8.30417
7.44229
6.70578
6.114
5.65551
5.29166
4.96307
4.59819
4.123
3.47064
2.59
1.45221
0.0542401
-1.58063
-3.40571
-5.35643
-7.35788
-9.33288
-11.2096
-12.9276
-14.4405
-15.7176
-16.7409
-17.5023
-17.9989
-18.2289
-18.1894
-17.8751
-17.2799
-16.3995
-15.2353
-13.7984
-12.1132
-10.2186
-8.1681
-6.02744
-3.87022
-1.7722
0.195187
1.9711
3.51051
4.78759
5.79688
6.55182
7.08115
7.42348
7.62089
7.71254
7.72913
7.68906
7.59668
7.4429
7.20783
6.86512
6.38712
5.75024
4.93959
3.95242
2.79986
1.50676
0.109841
-1.34567
-2.81023
-4.23454
-5.57382
-6.79115
-7.85954
-8.76232
-9.492
-10.0476
-10.4313
-10.6448
-10.687
-10.5517
-10.2284
-9.70365
-8.96454
-8.00229
-6.81644
-5.41832
-3.83328
-2.10143
-0.276527
1.57674
3.38695
5.08105
6.58973
7.85269
8.82302
9.47037
9.78276
9.76667
9.44574
8.85804
8.05252
7.08472
6.01244
4.89174
3.77347
2.70078
1.70775
0.818961
0.0501421
-0.590494
-1.10048
-1.48123
-1.73634
-1.87031
-1.88781
-1.79338
-1.59158
-1.28736
-0.886488
-0.395953
0.17587
0.819253
1.52345
2.27727
3.06984
3.89142
4.73421
5.59295
6.46537
7.35216
8.25665
9.18397
10.1395
11.1269
12.1453
13.1859
14.2296
15.2439
16.1824
16.9854
17.5833
17.9015
17.8679
17.4202
16.5145
15.1312
13.2796
10.9997
8.35998
5.45344
2.38988
-0.712736
-3.73782
-6.57926
-9.14913
-11.3832
-13.2436
-14.7192
-15.8225
-16.5851
-17.0516
-17.2731
-17.3001
-17.178
-16.9424
-16.617
-16.2137
-15.7329
-15.1668
-14.5017
-13.7223
-12.8146
-11.7691
-10.5828
-9.26096
-7.81775
-6.27606
-4.66683
-3.02775
-1.40157
0.165992
1.62844
2.94102
4.06319
4.96111
5.60996
5.99574
6.1166
5.98334
5.6192
5.05872
4.34606
3.53277
2.67544
1.83339
1.06659
0.434005
-0.00783047
-0.206023
-0.11257
0.314181
1.10772
2.29117
3.87458
5.85209
8.19888
10.8685
13.791
16.8723
19.995
23.0222
25.8026
28.1785
29.9952
31.1122
31.4139
30.8203
29.2952
26.8517
23.554
19.515
14.8893
9.86302
4.6407
-0.569707
-5.57136
-10.1918
-14.2935
-17.7805
-20.6005
-22.7434
-24.234
-25.1221
-25.468
-25.3244
-24.7136
-23.6013
-21.8656
-19.2629
-15.396
-9.68844
-1.37639
10.4694
26.8795
48.8686
77.2645
112.493
154.347
201.778
252.768
304.317
352.591
393.239
421.852
434.505
428.323
401.955
355.906
292.63
216.385
132.842
48.4989
-30.0208
-96.6986
-146.778
-177.264
-187.204
-177.723
-151.805
-113.874
-69.2211
-23.3693
18.557
52.368
75.1986
85.7135
84.1147
71.9686
51.8853
27.1034
1.03843
-23.1465
-42.8973
-56.515
-63.2709
-63.3901
-57.9167
-48.4899
-37.0673
-25.6368
-15.9531
-9.32997
-6.51068
-7.62325
-12.2198
-19.386
-27.9014
-36.4244
-43.6773
-48.6079
-50.5091
-49.0855
-44.4623
-37.1424
-27.9178
-17.7541
-7.66122
1.43103
8.77752
13.8924
16.5862
16.965
15.3936
12.4325
8.75622
5.06618
2.00848
0.105866
-0.289153
0.983395
3.89341
8.24508
13.718
19.9183
26.4324
32.8774
38.9417
44.4135
49.1939
53.2973
56.8388
60.0125
63.0644
66.2619
69.8641
74.0944
79.1179
85.0241
91.8172
99.4128
107.643
116.267
124.99
133.481
141.399
148.413
154.225
158.589
161.322
162.306
161.494
158.898
154.576
148.624
141.155
132.297
122.187
110.974
98.8299
85.9577
72.6048
59.0664
45.6829
32.8263
20.8771
10.1933
1.0755
-6.26536
-11.7344
-15.3667
-17.3278
-17.8979
-17.4434
-16.3781
-15.1189
-14.0428
-13.4497
-13.5354
-14.3782
-15.9399
-18.0803
-20.5825
-23.185
-25.6168
-27.6305
-29.0293
-29.6858
-29.5514
-28.6541
-27.0893
-25.0022
-22.5675
-19.9675
-17.3719
-14.9215
-12.7174
-10.8165
-9.23202
-7.93953
-6.88646
-6.00341
-5.21588
-4.45482
-3.66491
-2.80991
-1.87486
-0.86526
0.196078
1.27384
2.32585
3.30869
4.18284
4.91665
5.48917
5.89153
6.12706
6.21028
6.16494
6.02146
5.81385
5.57646
5.34078
5.13259
4.9698
4.8612
4.8064
4.79691
4.81819
4.85229
4.8805
4.88566
4.8536
4.77368
4.63834
4.44209
4.18009
3.84698
3.43599
2.93898
2.34716
1.65266
0.850639
-0.0583329
-1.0661
-2.1553
-3.29866
-4.45961
-5.59404
-6.65344
-7.58885
-8.35536
-8.91664
-9.24889
-9.34389
-9.21052
-8.8747
-8.37749
-7.77157
-7.1164
-6.47249
-5.89553
-5.43091
-5.1094
-4.94437
-4.93086
-5.04675
-5.25564
-5.5113
-5.76299
-5.96114
-6.06257
-6.03485
-5.85917
-5.53166
-5.063
-4.47656
-3.80542
-3.08857
-2.36687
-1.67922
-1.05918
-0.532461
-0.115363
0.185716
0.373826
0.460193
0.462351
0.401934
0.30236
0.186645
0.0754982
-0.0141279
-0.0699704
-0.0848181
-0.0563554
0.013407
0.118957
0.252204
0.403356
0.561676
0.716087
0.855634
0.969843
1.04904
1.0847
1.06984
0.999552
0.871601
0.687118
0.451175
0.173178
-0.133136
-0.450198
-0.757688
-1.03414
-1.25896
-1.41457
-1.48842
-1.47467
-1.37502
-1.19885
-0.962368
-0.686909
-0.396601
-0.115564
0.134959
0.339211
0.488893
0.584195
0.633717
0.653233
0.663453
0.687078
0.745559
0.855975
1.02842
1.26419
1.55504
1.88338
2.22362
2.54438
2.8113
2.99037
3.05121
2.9703
2.73359
2.33857
1.79536
1.12691
0.368089
-0.436182
-1.23387
-1.96957
-2.58885
-3.04295
-3.2933
-3.31552
-3.10227
-2.66448
-2.0307
-1.24432
-0.358766
0.568578
1.48319
2.33975
3.10717
3.77133
4.33532
4.81692
5.24395
5.64809
6.05832
6.49481
6.96446
7.45856
7.95293
8.41064
8.78656
9.03339
9.10794
8.97704
8.62218
8.04228
7.25426
6.29141
5.19975
4.03296
2.84644
1.69135
0.609242
-0.37209
-1.24111
-2.00318
-2.67933
-3.30327
-3.91705
-4.56554
-5.29036
-6.12353
-7.08145
-8.15971
-9.32934
-10.5353
-11.6975
-12.7154
-13.4754
-13.8606
-13.7631
-13.0963
-11.8054
-9.8765
-7.34023
-4.27174
-0.785132
2.97636
6.85343
10.6855
14.3252
17.6511
20.5769
23.0562
25.0827
26.6853
27.9204
28.8603
29.5822
30.1565
30.6376
31.0573
31.4221
31.7138
31.8926
31.9038
31.6848
31.1721
30.3086
29.048
27.3579
25.2215
22.6369
19.6173
16.1907
12.3996
8.30216
3.97241
-0.49948
-5.00888
-9.43999
-13.6714
-17.5832
-21.0654
-24.0259
-26.3972
-28.1398
-29.2424
-29.7166
-29.5877
-28.8794
-27.5928
-25.6802
-23.0127
-19.343
-14.2683
-7.20107
2.64246
16.2186
34.5846
58.7668
89.5704
127.344
171.733
221.467
274.239
326.724
374.766
413.745
439.082
446.823
434.224
400.236
345.799
273.907
189.397
98.5004
8.18966
-74.5724
-143.598
-194.146
-223.412
-230.779
-217.808
-187.97
-146.161
-98.0893
-49.5873
-5.96402
28.5439
51.1543
60.7233
57.7225
44.0295
22.5708
-3.12457
-29.4029
-52.9312
-71.0615
-82.077
-85.3014
-81.0718
-70.5915
-55.6932
-38.5493
-21.3707
-6.13277
5.64198
13.0231
15.7235
14.0668
8.88222
1.34834
-7.1903
-15.4079
-22.1609
-26.6114
-28.3006
-27.1671
-23.5137
-17.9331
-11.2035
-4.17312
2.35339
7.71145
11.4458
13.3471
13.4538
12.0237
9.48078
6.34776
3.1737
0.467086
-1.35755
-2.01375
-1.35583
0.629179
3.84613
8.1271
13.2703
19.0758
25.3723
32.0323
38.9739
46.1517
53.5398
61.1119
68.8227
76.5951
84.3153
91.8373
98.9956
105.623
111.573
116.737
121.063
124.559
127.294
129.391
131.001
132.288
133.4
134.444
135.463
136.425
137.211
137.617
137.367
136.136
133.576
129.364
123.236
115.036
104.75
92.5332
78.7124
63.7802
48.3605
33.1599
18.9055
6.27644
-4.16194
-12.0139
-17.0924
-19.4363
-19.304
-17.1441
-13.5467
-9.1809
-4.72683
-0.808471
2.06428
3.53877
3.44375
1.79286
-1.23181
-5.31308
-10.0443
-14.981
-19.6932
-23.8108
-27.0595
-29.2818
-30.4434
-30.6249
-30.0005
-28.8083
-27.3154
-25.7833
-24.436
-23.4368
-22.8735
-22.7538
-23.0116
-23.5211
-24.1169
-24.6183
-24.8523
-24.675
-23.9878
-22.7468
-20.9648
-18.7076
-16.0833
-13.2282
-10.2908
-7.41529
-4.72754
-2.3239
-0.264516
1.42903
2.7716
3.80885
4.60872
5.25144
5.81899
6.38529
7.00781
7.72148
8.53535
9.43207
10.3705
11.2907
12.1214
12.7882
13.2233
13.3732
13.2065
12.7181
11.9309
10.8941
9.67817
8.36711
7.04884
5.8048
4.70015
3.77585
3.0437
2.48498
2.05318
1.68035
1.28633
0.789629
0.118416
-0.779935
-1.93201
-3.33503
-4.95734
-6.74217
-8.61412
-10.487
-12.2719
-13.8853
-15.2544
-16.3227
-17.0516
-17.4222
-17.4338
-17.1026
-16.4586
-15.5429
-14.4035
-13.0928
-11.6638
-10.1685
-8.65534
-7.1682
-5.74553
-4.41982
-3.21725
-2.1574
-1.25279
-0.508449
0.0785983
0.519578
0.8338
1.04788
1.19426
1.30896
1.42889
1.5888
1.81845
2.14018
2.56717
3.1022
3.73685
4.4507
5.21049
5.96944
6.66712
7.23076
7.57867
7.62627
7.29475
6.52181
5.27293
3.55164
1.40657
-1.0663
-3.72746
-6.40394
-8.90488
-11.0408
-12.644
-13.588
-13.8019
-13.2797
-12.0809
-10.3246
-8.17615
-5.82905
-3.4841
-1.32854
0.48242
1.83949
2.6873
3.02582
2.90562
2.41777
1.68006
0.821491
-0.0331663
-0.776766
-1.32987
-1.64657
-1.71584
-1.55857
-1.22119
-0.766859
-0.26555
0.215715
0.621284
0.913075
1.07394
1.10802
1.03818
0.901194
0.741235
0.602866
0.524368
0.532425
0.638908
0.840207
1.11919
1.44941
1.80092
2.1466
2.46801
2.75962
3.03073
3.30465
3.61514
4.00067
4.49731
5.13147
5.91363
6.83401
7.86104
8.94288
10.0117
10.9907
11.8016
12.3739
12.6519
12.6012
12.2112
11.4961
10.4922
9.25239
7.84002
6.32088
4.75615
3.19633
1.677
0.216962
-1.18141
-2.52964
-3.849
-5.16519
-6.50226
-7.8766
-9.2912
-10.7311
-12.1604
-13.522
-14.7399
-15.7243
-16.3798
-16.6153
-16.355
-15.5481
-14.1778
-12.2661
-9.87517
-7.10447
-4.08353
-0.961657
2.10463
4.96485
7.48712
9.56862
11.1431
12.1847
12.7077
12.763
12.4309
11.8122
11.0173
10.1553
9.32462
8.60401
8.04751
7.68169
7.50637
7.49837
7.61792
7.81669
8.0467
8.26881
8.45974
8.61686
8.76017
8.93116
9.18866
9.6021
10.2425
11.172
12.4334
14.0393
15.9644
18.1396
20.4513
22.745
24.8346
26.5162
27.5865
27.863
27.205
25.5309
22.832
19.1778
14.7137
9.65129
4.24967
-1.20681
-6.43414
-11.1733
-15.2116
-18.3977
-20.6502
-21.9573
-22.3697
-21.986
-20.9324
-19.3362
-17.2941
-14.8333
-11.8683
-8.15387
-3.24176
3.54991
13.1392
26.6389
45.2554
70.1212
102.065
141.345
187.387
238.581
292.199
344.48
390.902
426.63
447.1
448.641
429.06
388.072
327.515
251.284
165.003
75.4456
-10.1996
-85.1313
-143.695
-181.999
-198.308
-193.173
-169.279
-131.051
-84.0724
-34.3942
12.1661
50.6573
77.4815
90.6889
90.0573
76.9633
54.0773
24.9334
-6.56453
-36.6358
-62.0551
-80.4788
-90.6346
-92.3644
-86.5294
-74.8002
-59.3699
-42.6311
-26.8607
-13.9499
-5.20877
-1.26148
-2.03725
-6.84797
-14.5352
-23.6614
-32.718
-40.3227
-45.383
-47.209
-45.5662
-40.6675
-33.1101
-23.7716
-13.6799
-3.87656
4.70956
11.3639
15.6524
17.4486
16.9199
14.4807
10.7205
6.31712
1.94942
-1.78138
-4.41211
-5.65402
-5.40301
-3.72488
-0.820308
3.02378
7.48822
12.2731
17.1395
21.937
26.6144
31.2139
35.8515
40.6884
45.8982
51.634
58.0022
65.044
72.7263
80.9444
89.5314
98.2758
106.942
115.293
123.106
130.194
136.41
141.653
145.863
149.011
151.087
152.079
151.958
150.666
148.106
144.149
138.65
131.47
122.515
111.77
99.3327
85.4391
70.4676
54.9297
39.4382
24.6582
11.2466
-0.213548
-9.2747
-15.6743
-19.3653
-20.5226
-19.525
-16.9143
-13.3358
-9.46878
-5.95458
-3.33158
-1.98411
-2.11116
-3.71748
-6.62703
-10.5159
-14.9597
-19.4887
-23.6443
-27.0295
-29.348
-30.4295
-30.2378
-28.863
-26.5005
-23.42
-19.9291
-16.336
-12.917
-9.89031
-7.4002
-5.51156
-4.21447
-3.43731
-3.06582
-2.96497
-3.0007
-3.05866
-3.0578
-2.95763
-2.75865
-2.49664
-2.23195
-2.03589
-1.97607
-2.10289
-2.43905
-2.97316
-3.65837
-4.416
-5.14351
-5.72585
-6.04861
-6.01128
-5.53904
-4.59155
-3.16775
-1.30607
0.9199
3.40956
6.04633
8.70986
11.2879
13.6862
15.8354
17.6935
19.2453
20.4971
21.47
22.1914
22.687
22.9747
23.0603
22.9374
22.5892
21.9938
21.1297
19.9827
18.5512
16.8496
14.9096
12.7785
10.5154
8.18584
5.85526
3.58345
1.41961
-0.600651
-2.45645
-4.1409
-5.65911
-7.0253
-8.2598
-9.38619
-10.4289
-11.4113
-12.3537
-13.2716
-14.1737
-15.0591
-15.9157
-16.7178
-17.4259
-17.9879
-18.3416
-18.4207
-18.1614
-17.5107
-16.4344
-14.9248
-13.0055
-10.7343
-8.20112
-5.52387
-2.83934
-0.292233
1.97757
3.84791
5.22578
6.05594
6.32559
6.06448
5.34036
4.25045
2.90972
1.43782
-0.0539096
-1.47372
-2.75737
-3.87206
-4.81569
-5.61196
-6.30196
-6.93372
-7.55115
-8.18418
-8.84145
-9.50665
-10.1391
-10.6787
-11.0538
-11.1923
-11.0324
-10.5336
-9.68468
-8.5076
-7.05795
-5.42041
-3.70047
-2.01342
-0.47209
0.825237
1.80496
2.42531
2.67959
2.59529
2.22944
1.66077
0.979914
0.278943
-0.358612
-0.865995
-1.19895
-1.3384
-1.29006
-1.08123
-0.755409
-0.365502
0.0334114
0.390943
0.667117
0.836407
0.889793
0.834799
0.693697
0.500253
0.295482
0.122945
0.024062
0.0339142
0.17787
0.469319
0.908671
1.48368
2.17106
2.93914
3.7514
4.5704
5.36167
6.09724
6.75834
7.33698
7.83626
8.26932
8.65706
9.02482
9.3985
9.80044
10.2457
10.7392
11.2739
11.8307
12.3796
12.8825
13.297
13.5803
13.6946
13.6101
13.3089
12.7858
12.049
11.118
10.0215
8.79318
7.46781
6.07748
4.64834
3.19857
1.73769
0.267237
-1.21748
-2.7248
-4.26375
-5.84111
-7.45872
-9.11119
-10.7842
-12.4532
-14.0832
-15.6289
-17.0363
-18.2445
-19.1898
-19.8098
-20.048
-19.8596
-19.2158
-18.1073
-16.5472
-14.5704
-12.2327
-9.60671
-6.77744
-3.836
-0.873311
2.0263
4.79086
7.36538
9.7151
11.8268
13.7082
15.3855
16.899
18.2974
19.6306
20.9431
22.2673
23.6174
24.9867
26.3457
27.6442
28.8151
29.7812
30.4627
30.7857
30.69
30.1352
29.1041
27.6037
25.6635
23.3311
20.6673
17.7399
14.6186
11.371
8.0598
4.74119
1.46519
-1.72381
-4.78555
-7.68216
-10.3761
-12.8282
-14.9957
-16.8306
-18.2794
-19.2824
-19.7748
-19.6857
-18.9361
-17.43
-15.0392
-11.5767
-6.76277
-0.185611
8.73149
20.7428
36.7541
57.7412
84.6044
117.96
157.896
203.724
253.79
305.397
354.881
397.873
429.725
446.068
443.409
419.695
374.728
310.375
230.511
140.707
47.669
-41.4646
-119.909
-181.971
-223.662
-243.088
-240.597
-218.643
-181.422
-134.314
-83.2218
-33.8849
8.7369
40.9484
60.6184
67.2719
61.9802
47.0792
25.7645
1.62217
-21.8403
-41.6076
-55.4684
-62.1985
-61.6041
-54.4357
-42.1937
-26.8635
-10.6172
4.4759
16.6964
24.8531
28.3772
27.3296
22.3299
14.4229
4.90652
-4.85411
-13.6018
-20.3312
-24.3871
-25.5088
-23.8224
-19.7848
-14.0934
-7.57495
-1.06916
4.67765
9.09747
11.8556
12.8719
12.3095
10.5343
8.05517
5.45143
3.30029
2.11135
2.276
4.03614
7.47336
12.5175
18.9709
26.5436
34.8936
43.6668
52.5323
61.2094
69.4847
77.2195
84.348
90.8677
96.8259
102.303
107.396
112.205
116.817
121.301
125.7
130.028
134.268
138.375
142.275
145.873
149.051
151.682
153.631
154.768
154.973
154.152
152.236
149.192
145.021
139.756
133.455
126.193
118.054
109.127
99.5043
89.2857
78.5863
67.5463
56.3395
45.1777
34.3076
23.9993
14.5268
6.14154
-0.955846
-6.64271
-10.8944
-13.7939
-15.5287
-16.3737
-16.6633
-16.7541
-16.9857
-17.642
-18.921
-20.9146
-23.6031
-26.8627
-30.4862
-34.2129
-37.7638
-40.8776
-43.3419
-45.0168
-45.8481
-45.8682
-45.1866
-43.9703
-42.4183
-40.734
-39.0978
-37.645
-36.4511
-35.5254
-34.8138
-34.2102
-33.5735
-32.7492
-31.5904
-29.9782
-27.836
-25.1383
-21.9121
-18.2316
-14.2072
-9.97144
-5.66298
-1.41229
2.66996
6.49981
10.022
13.2074
16.0458
18.5384
20.6875
22.4898
23.931
24.9848
25.6146
25.7795
25.4421
24.5758
23.1732
21.2509
18.8519
16.0442
12.9167
9.57209
6.11821
2.65993
-0.708473
-3.90849
-6.87989
-9.58036
-11.9828
-14.071
-15.8346
-17.2654
-18.3536
-19.0875
-19.4544
-19.443
-19.0475
-18.2713
-17.13
-15.6528
-13.8828
-11.8744
-9.68975
-7.39411
-5.05153
-2.72109
-0.454573
1.70409
3.7179
5.55476
7.18501
8.57934
9.70768
10.5396
11.0459
11.2021
10.9915
10.4089
9.46357
8.18031
6.5996
4.77592
2.77483
0.6691
-1.46581
-3.55623
-5.53457
-7.34289
-8.93563
-10.2812
-11.3627
-12.177
-12.7337
-13.0522
-13.1592
-13.0848
-12.8591
-12.509
-12.0554
-11.5109
-10.8789
-10.1541
-9.32309
-8.36745
-7.26629
-5.99993
-4.55319
-2.91829
-1.09694
0.898479
3.04462
5.30768
7.64446
10.0038
12.3284
14.556
16.6219
18.4601
20.0055
21.1965
21.9772
22.3008
22.1315
21.4484
20.2468
18.5401
16.3601
13.7562
10.7933
7.54837
4.10668
0.557651
-3.00902
-6.50634
-9.85201
-12.9692
-15.7866
-18.2379
-20.2617
-21.8019
-22.8088
-23.2423
-23.0752
-22.2973
-20.9193
-18.9755
-16.5252
-13.6511
-10.4563
-7.05861
-3.58334
-0.155219
3.10981
6.11207
8.7741
11.0446
12.9001
14.3437
15.4027
16.1233
16.5651
16.7951
16.8809
16.8855
16.8624
16.8513
16.8754
16.9403
17.0331
17.1237
17.1675
17.1093
16.8881
16.4432
15.7203
14.6775
13.29
11.5537
9.48649
7.12706
4.532
1.77083
-1.08004
-3.94366
-6.74842
-9.43264
-11.9474
-14.2572
-16.3389
-18.1791
-19.7706
-21.1086
-22.1884
-23.0031
-23.5436
-23.7998
-23.7627
-23.4273
-22.7955
-21.8779
-20.6948
-19.2752
-17.6546
-15.8724
-13.9683
-11.9794
-9.93807
-7.87188
-5.8043
-3.757
-1.75272
0.181969
2.0147
3.70698
5.21562
6.496
7.50672
8.21483
8.60073
8.66195
8.41491
7.8946
7.15193
6.2495
5.25638
4.24285
3.27601
2.41664
1.7178
1.22484
0.976352
1.00565
1.34185
2.01019
3.03114
4.41827
6.17497
8.29051
10.7359
13.4607
16.3902
19.4261
22.4478
25.317
27.8851
30.0017
31.5246
32.3308
32.3261
31.454
29.7021
27.1054
23.7468
19.753
15.2879
10.5424
5.72145
1.03047
-3.33942
-7.22427
-10.4981
-13.0799
-14.9363
-16.0792
-16.5584
-16.4494
-15.8362
-14.7885
-13.3334
-11.4205
-8.88104
-5.38382
-0.395258
6.84593
17.3235
32.1913
52.6582
79.8071
114.354
156.378
205.067
258.533
313.764
366.743
412.756
446.882
464.583
462.336
438.202
392.227
326.619
245.641
155.237
62.4285
-25.4487
-101.551
-160.283
-197.892
-212.846
-205.917
-180.016
-139.757
-90.8626
-39.4601
8.62267
48.4813
76.6067
91.1586
92.0215
80.6538
59.7648
32.8733
3.81128
-23.7628
-46.7819
-63.0758
-71.5384
-72.1476
-65.8518
-54.3488
-39.7952
-24.4886
-10.5652
0.252226
6.82874
8.70138
6.0706
-0.290105
-9.18716
-19.1971
-28.8669
-36.8982
-42.2948
-44.4583
-43.2252
-38.8466
-31.9185
-23.2757
-13.8675
-4.63112
3.62
10.2796
14.9969
17.6862
18.5018
17.7847
15.9924
13.6233
11.1473
8.95114
7.3047
6.35005
6.1115
6.52203
7.45956
8.78592
10.382
12.1743
14.1499
16.3595
18.9093
21.9434
25.6219
30.0946
35.477
41.8286
49.1378
57.3134
66.1851
75.5116
84.9977
94.3159
103.133
111.14
118.073
123.744
128.047
130.973
132.601
133.089
132.65
131.522
129.937
128.081
126.066
123.905
121.503
118.661
115.103
110.511
104.581
97.0743
87.8736
77.0201
64.7342
51.4101
37.5858
23.8898
10.9729
-0.565714
-10.2486
-17.7752
-23.0541
-26.2097
-27.5607
-27.5747
-26.8067
-25.8276
-25.1557
-25.1966
-26.2011
-28.244
-31.2256
-34.8943
-38.8861
-42.7745
-46.125
-48.5469
-49.7364
-49.507
-47.8049
-44.7072
-40.4077
-35.1892
-29.3897
-23.3654
-17.4546
-11.9483
-7.06805
-2.95434
0.335297
2.81873
4.5746
5.72291
6.40376
6.75701
6.90506
6.94067
6.92056
6.8649
6.762
6.57686
6.26215
5.76974
5.06132
4.11695
2.94041
1.56125
0.0333737
-1.56942
-3.15996
-4.64569
-5.93695
-6.9547
-7.63712
-7.94422
-7.86036
-7.39443
-6.57794
-5.46119
-4.10818
-2.59085
-0.98318
0.644138
2.22812
3.71659
5.06989
6.26104
7.27475
8.10523
8.75338
9.22375
9.52148
9.64986
9.60857
9.39287
8.99375
8.39899
7.5951
6.56975
5.31451
3.8275
2.11563
0.195999
-1.90375
-4.14614
-6.48567
-8.87124
-11.249
-13.5647
-15.7663
-17.8047
-19.6343
-21.2129
-22.5013
-23.4626
-24.0631
-24.2734
-24.0706
-23.4419
-22.3877
-20.9246
-19.0877
-16.9306
-14.5242
-11.953
-9.30998
-6.69003
-4.18309
-1.86743
0.195883
1.96674
3.42754
4.58239
5.45408
6.07932
6.50283
6.77114
6.92671
7.00334
7.02308
6.99508
6.91634
6.77405
6.54906
6.21996
5.76712
5.17624
4.44093
3.5641
2.55803
1.44312
0.245573
-1.0057
-2.28247
-3.5603
-4.82072
-6.05201
-7.24822
-8.40646
-9.52293
-10.5882
-11.5829
-12.475
-13.2197
-13.7612
-14.0389
-13.9945
-13.5815
-12.7731
-11.5694
-10.0012
-8.12972
-6.04298
-3.84835
-1.6628
0.39792
2.2299
3.75004
4.90265
5.66291
6.03738
6.06163
5.79563
5.31736
4.71533
4.08037
3.49729
3.03675
2.74819
2.6542
2.74736
2.9898
3.31628
3.64052
3.86476
3.8917
3.63783
3.04657
2.09972
0.825253
-0.699735
-2.35215
-3.97212
-5.37773
-6.38372
-6.82204
-6.56159
-5.52462
-3.69766
-1.13542
2.04293
5.66456
9.51964
13.3818
17.0298
20.2683
22.9449
24.9619
26.2821
26.9275
26.9723
26.531
25.7426
24.7539
23.703
22.7048
21.8399
21.1481
20.6266
20.2329
19.8917
19.5061
18.9703
18.1825
17.0585
15.5412
13.6084
11.2742
8.58791
5.62715
2.48881
-0.721829
-3.90152
-6.95773
-9.81424
-12.4133
-14.7147
-16.6924
-18.3299
-19.616
-20.5414
-21.0971
-21.2755
-21.0724
-20.4908
-19.5446
-18.2617
-16.685
-14.8722
-12.8928
-10.8229
-8.73936
-6.71279
-4.80148
-3.04595
-1.46548
-0.0568325
1.20492
2.36336
3.47606
4.60883
5.8295
7.20184
8.78017
10.605
12.6996
15.0679
17.6925
20.5342
23.5311
26.5987
29.6307
32.5012
35.0673
37.1748
38.665
39.3837
39.1922
37.9798
35.6762
32.2634
27.7843
22.3476
16.1262
9.35036
2.29365
-4.74607
-11.4691
-17.5973
-22.8961
-27.1921
-30.3842
-32.4476
-33.4291
-33.4359
-32.6177
-31.1443
-29.1815
-26.8647
-24.2728
-21.4024
-18.1417
-14.2446
-9.30656
-2.74501
6.20671
18.4822
35.127
57.194
85.5833
120.833
162.884
210.856
262.891
316.105
366.708
410.284
442.237
458.344
455.338
431.433
386.702
323.233
245.033
157.672
67.7219
-17.9599
-92.9791
-152.105
-191.824
-210.672
-209.32
-190.401
-158.106
-117.63
-74.5192
-34.0227
-0.524545
22.8828
34.6384
34.7504
24.6434
6.84766
-15.4157
-38.6967
-59.7624
-75.9739
-85.5541
-87.7232
-82.6976
-71.5653
-56.0655
-38.3087
-20.4794
-4.55758
7.90475
15.9324
19.1884
17.9505
13.0125
5.53284
-3.14709
-11.6883
-18.9196
-23.9652
-26.3214
-25.8797
-22.8978
-17.9282
-11.7182
-5.09512
1.14569
6.33753
10.0133
11.9447
12.1477
10.8583
8.48343
5.53701
2.56932
0.100074
-1.43758
-1.73611
-0.632751
1.89146
5.7305
10.6855
16.5043
22.9222
29.6978
36.6394
43.6188
50.5737
57.4972
64.4206
71.3914
78.452
85.6222
92.8878
100.198
107.468
114.592
121.454
127.946
133.974
139.473
144.402
148.744
152.496
155.651
158.186
160.05
161.149
161.345
160.464
158.304
154.658
149.344
142.23
133.263
122.495
110.092
96.3422
81.6463
66.4938
51.4322
37.0266
23.8137
12.2578
2.71042
-4.62009
-9.68612
-12.6031
-13.636
-13.1714
-11.6777
-9.65858
-7.60405
-5.94464
-5.014
-5.02334
-6.05001
-8.04104
-10.8303
-14.1665
-17.7493
-21.267
-24.4339
-27.021
-28.8783
-29.9464
-30.2556
-29.9158
-29.0969
-28.0031
-26.8463
-25.8186
-25.0707
-24.6963
-24.7239
-25.1187
-25.7906
-26.6099
-27.4257
-28.0868
-28.46
-28.4459
-27.9883
-27.0778
-25.7492
-24.0729
-22.1427
-20.0612
-17.9259
-15.8166
-13.7871
-11.8615
-10.0353
-8.2807
-6.55598
-4.81567
-3.02152
-1.15134
0.795068
2.79382
4.799
6.74824
8.57083
10.1969
11.5666
12.6365
13.3849
13.8122
13.9391
13.8015
13.4439
12.9123
12.2473
11.4792
10.6251
9.68939
8.6658
7.54185
6.30424
4.94425
3.46226
1.87065
0.194693
-1.52861
-3.25353
-4.92985
-6.50771
-7.94235
-9.19801
-10.2506
-11.0887
-11.7133
-12.1356
-12.3744
-12.4524
-12.3928
-12.2162
-11.938
-11.5678
-11.1083
-10.5573
-9.90949
-9.15887
-8.30199
-7.34043
-6.28257
-5.14433
-3.94859
-2.72349
-1.49981
-0.307938
0.824991
1.8774
2.83446
3.68816
4.43607
5.07934
5.62016
6.05924
6.39386
6.61686
6.71678
6.67916
6.48902
6.13378
5.60663
4.90934
4.05434
3.06553
1.97754
0.833648
-0.317613
-1.42667
-2.44736
-3.34107
-4.08
-4.6492
-5.04706
-5.28428
-5.38151
-5.36592
-5.26718
-5.11346
-4.9279
-4.72611
-4.51504
-4.2933
-4.05293
-3.78222
-3.46908
-3.10453
-2.68548
-2.21654
-1.71048
-1.1872
-0.671409
-0.189303
0.235215
0.584236
0.848836
1.03086
1.14324
1.20865
1.2568
1.32066
1.43212
1.61768
1.8947
2.2688
2.73254
3.26579
3.83757
4.40929
4.93886
5.3852
5.71251
5.89385
5.91346
5.76768
5.46441
5.02139
4.4636
3.82025
3.12193
2.39823
1.67609
0.978876
0.326146
-0.266083
-0.7849
-1.22004
-1.56359
-1.80995
-1.95605
-2.00164
-1.94962
-1.80613
-1.58033
-1.28379
-0.929482
-0.530638
-0.0994769
0.353847
0.82196
1.3005
1.78784
2.28421
2.79053
3.30688
3.83097
4.35679
4.87364
5.36572
5.81248
6.18958
6.47057
6.629
6.64074
6.48628
6.15258
5.63442
4.93488
4.06512
3.04338
1.89348
0.643009
-0.678574
-2.04159
-3.41742
-4.77936
-6.10285
-7.36531
-8.54562
-9.62339
-10.5783
-11.3895
-12.0358
-12.4959
-12.7496
-12.7794
-12.5729
-12.1247
-11.4386
-10.5292
-9.42193
-8.15268
-6.76525
-5.30802
-3.82952
-2.37361
-0.974992
0.344371
1.57722
2.73093
3.8253
4.88841
5.95108
7.04075
8.17594
9.36198
10.5891
11.8332
13.0591
14.226
15.2947
16.2341
17.0271
17.674
18.1923
18.6137
18.9772
19.3204
19.6703
20.034
20.393
20.7009
20.8856
20.8567
20.5159
19.77
18.5442
16.7931
14.5085
11.7222
8.5039
4.95468
1.19696
-2.63674
-6.41502
-10.017
-13.3389
-16.2974
-18.8299
-20.8925
-22.4564
-23.5042
-24.026
-24.0169
-23.4739
-22.3923
-20.7582
-18.5353
-15.6435
-11.9271
-7.11531
-0.78116
7.69166
19.1173
34.4749
54.8182
81.1208
114.061
153.771
199.59
249.876
301.93
352.072
395.911
428.765
446.22
444.726
422.16
378.251
314.788
235.581
146.148
53.1757
-36.1883
-115.111
-177.821
-220.22
-240.298
-238.287
-216.543
-179.201
-131.623
-79.7424
-29.3771
14.3978
47.7498
68.4072
75.7709
70.8217
55.851
34.0605
9.09151
-15.4544
-36.443
-51.5377
-59.3997
-59.7466
-53.2756
-41.4737
-26.3493
-10.1265
5.05682
17.4086
25.673
29.2341
28.1281
22.9731
14.8325
5.03682
-5.00968
-14.0119
-20.9342
-25.1024
-26.2508
-24.513
-20.3637
-14.524
-7.8457
-1.19025
4.68166
9.19749
12.0286
13.1107
12.629
10.9742
8.67581
6.3245
4.49305
3.6663
4.18791
6.22923
9.78227
14.6756
20.6092
27.2021
34.0461
40.7573
47.0207
52.6206
57.4567
61.5432
64.9933
67.9927
70.7662
73.5417
76.5179
79.8387
83.5765
87.7282
92.22
96.9233
101.675
106.303
110.644
114.567
117.979
120.828
123.099
124.796
125.933
126.513
126.515
125.889
124.552
122.393
119.291
115.125
109.799
103.256
95.5011
86.6073
76.7269
66.0885
54.9886
43.7748
32.8218
22.5018
13.1528
5.0469
-1.63556
-6.82503
-10.5702
-13.0336
-14.4748
-15.2231
-15.6433
-16.0973
-16.9077
-18.3262
-20.5115
-23.5179
-27.2966
-31.7082
-36.5438
-41.5526
-46.4707
-51.0477
-55.0685
-58.3676
-60.8348
-62.4138
-63.0945
-62.9019
-61.8833
-60.0968
-57.603
-54.4605
-50.7248
-46.4521
-41.7043
-36.5551
-31.0953
-25.4358
-19.7066
-14.053
-8.62766
-3.57993
0.955898
4.87251
8.09955
10.6105
12.4251
13.6074
14.2589
14.5081
14.4969
14.3664
14.2425
14.2232
14.3703
14.7034
15.2001
15.7996
16.411
16.9243
17.2235
17.1996
16.763
15.8532
14.4453
12.5517
10.2203
7.52837
4.57386
1.46576
-1.68566
-4.77684
-7.71659
-10.4289
-12.8535
-14.9442
-16.6666
-17.996
-18.9153
-19.4149
-19.493
-19.1576
-18.4283
-17.3388
-15.9381
-14.2905
-12.4741
-10.5779
-8.69618
-6.92254
-5.34287
-4.02817
-3.0283
-2.36723
-2.04047
-2.01516
-2.233
-2.61597
-3.07426
-3.51583
-3.85637
-4.02885
-3.99117
-3.73121
-3.26839
-2.65148
-1.95274
-1.25902
-0.660903
-0.241019
-0.0632357
-0.163906
-0.546434
-1.17986
-2.00175
-2.92502
-3.84796
-4.66617
-5.28488
-5.63007
-5.65707
-5.35548
-4.74984
-3.89615
-2.87474
-1.78042
-0.711405
0.241769
1.00579
1.53167
1.7985
1.8138
1.6105
1.24117
0.770461
0.266786
-0.205803
-0.594443
-0.862367
-0.991422
-0.982097
-0.851224
-0.627809
-0.347627
-0.0473792
0.240746
0.493339
0.698236
0.854876
0.972535
1.06682
1.15504
1.2514
1.36276
1.48595
1.60703
1.70276
1.74403
1.70081
1.54774
1.2695
0.864997
0.349703
-0.244339
-0.87092
-1.47416
-1.99445
-2.37501
-2.56811
-2.54007
-2.27456
-1.77359
-1.05637
-0.156292
0.883659
2.01607
3.19437
4.37737
5.53266
6.63841
7.68372
8.66737
9.59566
10.4795
11.3316
12.1639
12.9855
13.8021
14.6156
15.4245
16.2249
17.0114
17.7773
18.5152
19.2165
19.8704
20.4634
20.9777
21.3913
21.6776
21.8071
21.7489
21.474
20.9583
20.1868
19.1561
17.8764
16.3718
14.6786
12.8412
10.9072
8.92076
6.91696
4.91694
2.92565
0.932596
-1.08411
-3.15082
-5.28954
-7.50862
-9.79468
-12.1073
-14.3776
-16.5118
-18.3988
-19.9217
-20.972
-21.4629
-21.3424
-20.6018
-19.2795
-17.4592
-15.2627
-12.8377
-10.343
-7.93216
-5.73846
-3.86269
-2.36542
-1.26453
-0.538022
-0.131391
0.031605
0.0366131
-0.0335114
-0.109092
-0.140972
-0.104092
0.00279242
0.16081
0.337184
0.492787
0.589801
0.598381
0.501496
0.29746
9.57496e-05
-0.363221
-0.755087
-1.1325
-1.45145
-1.67111
-1.75706
-1.68329
-1.43296
-0.997854
-0.376911
0.425931
1.40421
2.55133
3.86269
5.33708
6.97726
8.78934
10.7806
12.9554
15.3099
17.8247
20.4576
23.1373
25.76
28.1894
30.2632
31.8033
32.632
32.5903
31.557
29.4657
26.3167
22.183
17.2084
11.598
5.60215
-0.504033
-6.4433
-11.9584
-16.8315
-20.8979
-24.0544
-26.2598
-27.5275
-27.9099
-27.4731
-26.2618
-24.2538
-21.3081
-17.1119
-11.1379
-2.62656
9.38996
26.0076
48.3064
77.1468
112.925
155.326
203.117
254.04
304.848
351.504
389.556
414.632
423.011
412.174
381.251
331.278
265.232
187.799
104.919
23.1597
-51.0096
-111.929
-155.362
-178.938
-182.346
-167.299
-137.246
-96.9028
-51.6537
-6.9149
32.4673
62.7097
81.4243
87.7624
82.3657
67.1483
44.9481
19.1023
-6.99605
-30.3039
-48.4526
-59.9583
-64.3046
-61.8998
-53.9271
-42.1165
-28.4733
-15.0022
-3.45947
4.83792
9.13048
9.25313
5.59575
-1.0006
-9.39227
-18.3039
-26.4986
-32.9266
-36.8369
-37.8418
-35.9312
-31.4397
-24.9752
-17.3211
-9.32665
-1.79878
4.59025
9.3709
12.3137
13.4346
12.9704
11.3306
9.03335
6.6354
4.66386
3.55878
3.63141
5.04159
7.79472
11.7567
16.6831
22.258
28.1369
33.9891
39.535
44.5733
48.9986
52.8056
56.0824
58.9933
61.7547
64.6068
67.7844
71.4904
75.8739
81.0153
86.9182
93.509
100.642
108.111
115.66
123.004
129.842
135.876
140.824
144.441
146.527
146.94
145.605
142.514
137.722
131.346
123.548
114.526
104.503
93.7121
82.3978
70.8061
59.1855
47.7857
36.8543
26.6313
17.3385
9.16555
2.25332
-3.32232
-7.56378
-10.5589
-12.4798
-13.5716
-14.1325
-14.486
-14.9487
-15.7975
-17.2407
-19.397
-22.284
-25.8198
-29.8349
-34.0947
-38.3283
-42.2603
-45.641
-48.2721
-50.0247
-50.8469
-50.7629
-49.8625
-48.2836
-46.1915
-43.7567
-41.1342
-38.4482
-35.7811
-33.1708
-30.613
-28.0697
-25.4818
-22.7831
-19.9152
-16.8391
-13.5447
-10.0548
-6.42512
-2.73894
0.900764
4.38211
7.59556
10.4444
12.8531
14.7728
16.1834
17.092
17.5296
17.5443
17.1953
16.5451
15.654
14.5752
13.3517
12.0151
10.5863
9.07763
7.49586
5.84558
4.13269
2.36719
0.565139
-1.25067
-3.05117
-4.80274
-6.46987
-8.01828
-9.41813
-10.6465
-11.6887
-12.5387
-13.197
-13.6689
-13.961
-14.0785
-14.0229
-13.7913
-13.3768
-12.7702
-11.9634
-10.9526
-9.74147
-8.34372
-6.78469
-5.10124
-3.34042
-1.55704
0.189732
1.84009
3.33739
4.63167
5.68255
6.46147
6.95302
7.15554
7.08071
6.75234
6.20442
5.47843
4.62015
3.67624
2.6908
1.70213
0.740168
-0.175259
-1.0352
-1.84117
-2.60362
-3.33944
-4.0686
-4.81027
-5.57867
-6.37909
-7.20449
-8.03319
-8.82826
-9.53869
-10.1028
-10.4535
-10.5247
-10.2592
-9.61525
-8.57286
-7.13776
-5.34287
-3.24703
-0.931037
1.5084
3.96613
6.33645
8.52061
10.4331
12.0063
13.193
13.9678
14.3259
14.2816
13.8656
13.1223
12.1064
10.8803
9.51092
8.06657
6.61395
5.21465
3.92152
2.77527
1.80138
1.00803
0.385376
-0.0933647
-0.469009
-0.791739
-1.11518
-1.48997
-1.95768
-2.546
-3.266
-4.11182
-5.06269
-6.08702
-7.14735
-8.20538
-9.22585
-10.1786
-11.0387
-11.7843
-12.3933
-12.8403
-13.0931
-13.1123
-12.8519
-12.2638
-11.3036
-9.9379
-8.15248
-5.95851
-3.39688
-0.539127
2.51547
5.64648
8.72184
11.6094
14.1885
16.3611
18.0591
19.2489
19.9312
20.137
19.9196
19.3451
18.4824
17.393
16.1251
14.7089
13.1574
11.4689
9.63354
7.64022
5.48455
3.17517
0.738163
-1.78155
-4.32168
-6.80695
-9.15545
-11.2861
-13.1259
-14.6166
-15.7188
-16.4142
-16.7052
-16.6123
-16.1702
-15.4221
-14.4156
-13.1972
-11.8099
-10.2904
-8.6692
-6.97073
-5.21455
-3.41673
-1.59103
0.250411
2.09691
3.93949
5.77138
7.58831
9.3886
11.1726
12.9421
14.6989
16.444
18.1771
19.896
21.5972
23.2766
24.9306
26.5562
28.1507
29.71
31.2257
32.6801
34.0422
35.2629
36.2725
36.9809
37.2814
37.0582
36.198
34.6032
32.206
28.9815
24.9564
20.2134
14.8901
9.1703
3.27228
-2.56846
-8.11715
-13.1577
-17.5083
-21.0323
-23.6451
-25.3144
-26.0559
-25.9244
-25.0006
-23.3752
-21.1302
-18.3147
-14.9179
-10.8347
-5.82833
0.505681
8.76503
19.7396
34.3676
53.6349
78.4098
109.224
146.027
187.954
233.171
278.842
321.268
356.194
379.275
386.647
375.493
344.554
294.453
227.795
149.01
63.9369
-20.7895
-98.4698
-163.094
-210.01
-236.43
-241.693
-227.272
-196.526
-154.233
-105.98
-57.4904
-13.9699
20.4402
43.0482
52.796
50.2362
37.3172
17.0209
-7.09362
-31.3748
-52.5306
-67.995
-76.1713
-76.5334
-69.5857
-56.7
-39.8605
-21.3579
-3.47525
11.7951
22.97
29.2101
30.3606
26.9031
19.8328
10.484
0.330123
-9.21277
-16.9566
-22.0656
-24.1241
-23.1446
-19.5209
-13.9377
-7.25356
-0.372972
5.87263
10.8222
14.0499
15.3923
14.9396
12.9959
10.0178
6.54228
3.11562
0.231432
-1.71427
-2.44853
-1.82717
0.176208
3.49326
7.99039
13.499
19.8422
26.8541
34.3915
42.3361
50.591
59.0727
67.7016
76.3934
85.0547
93.5819
101.865
109.794
117.268
124.203
130.539
136.242
141.301
145.725
149.533
152.745
155.369
157.396
158.795
159.509
159.466
158.576
156.749
153.893
149.926
144.781
138.407
130.777
121.896
111.806
100.601
88.4363
75.5385
62.205
48.7989
35.7327
23.4417
12.35
2.83277
-4.82186
-10.4439
-14.003
-15.6152
-15.5351
-14.1314
-11.8516
-9.17637
-6.57247
-4.44737
-3.11209
-2.75605
-3.4365
-5.08314
-7.51667
-10.4784
-13.6665
-16.7748
-19.5284
-21.7129
-23.1941
-23.926
-23.9478
-23.3707
-22.3574
-21.0969
-19.7792
-18.5716
-17.6009
-16.9416
-16.613
-16.5819
-16.7731
-17.0822
-17.3921
-17.5881
-17.5713
-17.2685
-16.6377
-15.6699
-14.3861
-12.8326
-11.0733
-9.18226
-7.23568
-5.30555
-3.45426
-1.73107
-0.170064
1.21028
2.40639
3.42772
4.29413
5.03265
5.67377
6.2477
6.78069
7.29175
7.79017
8.27398
8.7297
9.13338
9.45308
9.65236
9.69474
9.54838
9.19059
8.61145
7.81614
6.82548
5.67467
4.41019
3.08541
1.75544
0.471795
-0.722167
-1.79469
-2.7274
-3.51528
-4.16509
-4.69249
-5.11842
-5.46551
-5.75495
-6.0043
-6.22651
-6.43003
-6.6197
-6.7981
-6.96677
-7.12686
-7.27903
-7.42261
-7.55413
-7.66581
-7.74439
-7.77096
-7.72197
-7.57152
-7.29489
-6.87259
-6.29458
-5.56371
-4.69776
-3.7297
-2.70577
-1.68151
-0.716278
0.133259
0.819689
1.31063
1.59285
1.67421
1.58294
1.36436
1.07542
0.777649
0.529478
0.378893
0.357442
0.476388
0.725555
1.075
1.47928
1.88363
2.23119
2.47027
2.56065
2.47813
2.21686
1.78933
1.22415
0.562219
-0.148166
-0.856413
-1.51435
-2.07999
-2.5201
-2.81142
-2.94077
-2.90425
-2.70575
-2.35532
-1.86746
-1.25964
-0.551099
0.238048
1.08747
1.97718
2.88797
3.80181
4.70224
5.57453
6.40583
7.18507
7.90276
8.55081
9.12224
9.61106
10.0122
10.3217
10.5364
10.6545
10.6749
10.5973
10.4215
10.1464
9.76985
9.28755
8.69313
7.97853
7.13515
6.15559
5.03591
3.77796
2.39141
0.894962
-0.68362
-2.3089
-3.94056
-5.53719
-7.06059
-8.47951
-9.7722
-10.9269
-11.9397
-12.8112
-13.5406
-14.1204
-14.5319
-14.7432
-14.7099
-14.379
-13.6957
-12.6118
-11.0951
-9.13742
-6.76091
-4.02111
-1.00619
2.1677
5.36456
8.43942
11.2506
13.6723
15.605
16.9848
17.7871
18.0278
17.7597
17.0646
16.0443
14.8083
13.4629
12.1013
10.796
9.59535
8.52245
7.57834
6.74723
6.00341
5.31863
4.66876
4.03876
3.42544
2.83753
2.29342
1.81695
1.43217
1.15789
1.00305
0.963646
1.02175
1.14674
1.29863
1.43295
1.50642
1.48246
1.33565
1.05446
0.641695
0.112789
-0.507794
-1.19136
-1.91008
-2.64145
-3.37144
-4.09564
-4.81852
-5.5508
-6.3057
-7.09473
-7.92377
-8.79005
-9.68039
-10.5705
-11.4253
-12.1988
-12.8336
-13.2582
-13.3811
-13.0808
-12.1904
-10.4773
-7.61948
-3.1823
3.39597
12.7996
25.799
43.1718
65.5759
93.3812
126.478
164.097
204.679
245.847
284.498
317.044
339.777
349.328
343.142
319.913
279.886
224.983
158.712
85.8652
12.0319
-56.9986
-115.876
-160.282
-187.391
-196.153
-187.359
-163.484
-128.341
-86.5955
-43.2004
-2.8378
30.5786
54.275
66.8298
68.2126
59.6566
43.3951
22.3034
-0.501982
-22.0547
-39.8742
-52.2102
-58.1751
-57.7577
-51.7303
-41.4692
-28.72
-15.3417
-3.06434
6.71254
13.0589
15.5803
14.4099
10.136
3.67986
-3.85489
-11.3398
-17.7658
-22.357
-24.6441
-24.4913
-22.0793
-17.8504
-12.4268
-6.51375
-0.802106
4.1189
7.82871
10.1161
10.9909
10.6677
9.52558
8.05052
6.76904
6.18085
6.69925
8.60572
12.0231
16.9097
23.0729
30.2008
37.9055
45.7729
53.4123
60.5009
66.8161
72.2543
76.8345
80.686
84.0241
87.1163
90.2454
93.6727
97.6066
102.181
107.442
113.353
119.798
126.607
133.574
140.477
147.101
153.247
158.737
163.416
167.141
169.777
171.193
171.256
169.84
166.831
162.144
155.735
147.62
137.881
126.674
114.226
100.832
86.8404
72.6369
58.6254
45.2052
32.749
21.5802
11.9517
4.02927
-2.1214
-6.53971
-9.36768
-10.8386
-11.2572
-10.9736
-10.3517
-9.73724
-9.42756
-9.64699
-10.5304
-12.1169
-14.3536
-17.109
-20.1947
-23.3907
-26.473
-29.239
-31.5283
-33.2363
-34.3199
-34.7951
-34.7277
-34.2186
-33.3866
-32.3505
-31.2143
-30.0556
-28.9195
-27.8188
-26.7376
-25.6404
-24.4824
-23.2202
-21.8213
-20.2711
-18.5756
-16.7616
-14.8723
-12.9614
-11.086
-9.29928
-7.64464
-6.15207
-4.83669
-3.69967
-2.73106
-1.91374
-1.2277
-0.653856
-0.176929
0.213096
0.520878
0.746876
0.889381
0.946932
0.920656
0.816099
0.644317
0.422095
0.171383
-0.0818987
-0.309441
-0.482312
-0.572713
-0.555633
-0.410356
-0.121811
0.318232
0.910203
1.6461
2.50937
3.47549
4.51343
5.58796
6.66281
7.70429
8.68492
9.58663
10.4027
11.1381
11.8079
12.4341
13.04
13.6446
14.2562
14.8678
15.4542
15.9714
16.3602
16.5511
16.4732
16.0623
15.2701
14.0708
12.4658
10.4845
8.18296
5.63946
2.9482
0.212828
-2.46018
-4.96719
-7.21195
-9.10898
-10.5861
-11.5862
-12.069
-12.0125
-11.4144
-10.2934
-8.68979
-6.66561
-4.3029
-1.70067
1.03005
3.773
6.41461
8.85234
11.0023
12.8047
14.2263
15.2593
15.9167
16.2246
16.2141
15.9126
15.3374
14.4933
13.3724
11.9586
10.2347
8.19021
5.83006
3.18081
0.294689
-2.75018
-5.85316
-8.89782
-11.7612
-14.3244
-16.4827
-18.1554
-19.2919
-19.8756
-19.9241
-19.486
-18.6347
-17.4607
-16.0618
-14.5346
-12.966
-11.4269
-9.96827
-8.61964
-7.39012
-6.27148
-5.24282
-4.27614
-3.34214
-2.41548
-1.47915
-0.527286
0.433489
1.38454
2.29722
3.13608
3.86313
4.44229
4.84388
5.04833
5.0488
4.85231
4.47921
3.96105
3.33704
2.64955
1.93921
1.24034
0.577333
-0.0374268
-0.603744
-1.13176
-1.63831
-2.14195
-2.65751
-3.1909
-3.73515
-4.26835
-4.75405
-5.14399
-5.38311
-5.41601
-5.1939
-4.68107
-3.85978
-2.7328
-1.32317
0.328706
2.1702
4.14285
6.18885
8.2566
10.3041
12.2999
14.2208
16.0484
17.7624
19.3358
20.7294
21.8898
22.7501
23.2332
23.259
22.753
21.6563
19.9349
17.5882
14.6536
11.2097
7.37402
3.29809
-0.841017
-4.85197
-8.54216
-11.7314
-14.2649
-16.025
-16.939
-16.9842
-16.1881
-14.6233
-12.4
-9.65398
-6.53328
-3.18458
0.259382
3.68994
7.02917
10.2323
13.2858
16.2007
19.0026
21.7182
24.3619
26.922
29.3512
31.5613
33.4244
34.7819
35.4591
35.2862
34.1206
31.8702
28.5119
24.1041
18.7897
12.7902
6.38977
-0.0879745
-6.30827
-11.9547
-16.7565
-20.5104
-23.0945
-24.4712
-24.6802
-23.8197
-22.0178
-19.3937
-16.0128
-11.8375
-6.67972
-0.164659
8.28554
19.4333
34.1612
53.3549
77.7338
107.646
142.858
182.376
224.352
266.105
304.29
335.209
355.227
361.251
351.198
324.363
281.641
225.548
160.031
90.0795
21.2028
-41.1804
-92.3384
-128.742
-148.428
-151.168
-138.429
-113.133
-79.2566
-41.3324
-3.90815
28.9576
54.109
69.5705
74.6632
69.9606
57.0986
38.4781
16.9037
-4.79055
-24.0814
-39.024
-48.4204
-51.8789
-49.7655
-43.0669
-33.1893
-21.7263
-10.2276
0.000236922
8.03986
13.4411
16.2277
16.8395
16.0231
14.6917
13.7752
14.0819
16.19
20.3791
26.609
34.5431
43.609
43.609
43.609
43.609
43.609
43.609
43.609
43.609
43.609
43.609
43.609
43.609
43.609
43.609
43.609
43.609
43.609
43.609
43.609
43.609
