-304.688
-313.198
-321.18
-327.716
-331.793
-332.393
-328.589
-319.654
-305.141
-284.95
-259.362
-229.033
-194.949
-158.355
-120.656
-83.3044
-47.6904
-15.0368
13.6819
37.7951
56.9595
71.151
80.6265
85.8631
87.4804
86.1561
82.5446
77.205
70.5463
62.7926
53.969
43.9068
32.2654
18.5667
2.24122
-17.3152
-40.6725
-68.2846
-100.396
-136.939
-177.438
-220.922
-265.877
-310.251
-351.523
-386.851
-413.298
-428.112
-429.043
-414.651
-384.57
-339.672
-282.117
-215.246
-143.336
-71.2351
-3.90163
54.0763
98.9402
128.134
140.548
136.599
118.148
88.2592
50.8335
10.1728
-29.4838
-64.3887
-91.6331
-109.378
-116.951
-114.8
-104.336
-87.6679
-67.2976
-45.7899
-25.4749
-8.20707
4.79261
13.0029
16.5765
16.2359
13.1107
8.54198
3.88125
0.308759
-1.30899
-0.508298
2.74166
8.06606
14.7606
21.9029
28.4831
33.5356
36.2567
36.0962
32.8125
26.4903
17.5204
6.54748
-5.60577
-18.0281
-29.812
-40.1397
-48.3523
-53.9996
-56.8637
-56.9599
-54.5142
-49.9245
-43.7092
-36.4512
-28.7416
-21.1302
-14.0847
-7.96261
-2.9951
0.716468
3.19406
4.56822
5.05779
4.94592
4.55442
4.21747
4.25562
4.95102
6.52456
9.11624
12.77
17.4249
22.9143
28.974
35.2604
41.3775
46.9111
51.4676
54.7115
56.4004
56.4099
54.7474
51.5523
47.0813
41.6826
35.7595
29.7302
23.9866
18.8589
14.5888
11.3135
9.06321
7.7698
7.28559
7.40821
7.90838
8.55681
9.14755
9.51575
9.549
9.19238
8.44776
7.36857
6.05098
4.62287
3.23109
2.02805
1.158
0.743533
0.873156
1.59062
2.88715
4.69769
6.90214
9.33238
11.785
14.039
15.8774
17.1096
17.5927
17.2487
16.0744
14.1443
11.6039
8.65487
5.53405
2.48853
-0.250302
-2.49027
-4.09682
-5.00435
-5.21921
-4.81458
-3.91804
-2.69388
-1.32236
0.0211441
1.18494
2.05543
2.56577
2.69801
2.47856
1.96779
1.24477
0.389354
-0.536194
-1.50324
-2.52786
-3.67471
-5.05242
-6.80005
-9.06591
-11.9808
-15.6296
-20.0243
-25.0836
-30.6222
-36.3514
-41.8936
-46.8087
-50.6302
-52.9088
-53.2566
-51.3889
-47.1578
-40.5741
-31.8143
-21.2132
-9.24158
3.52565
16.4481
28.8579
40.0914
49.5102
56.5082
60.5061
60.9384
57.2416
48.8551
35.246
15.9657
-9.25916
-40.4089
-77.0401
-118.165
-162.17
-206.798
-249.216
-286.186
-314.327
-330.45
-331.93
-317.077
-285.431
-237.955
-177.075
-106.55
-31.1751
43.6526
112.46
170.252
213.025
238.178
244.764
233.562
206.945
168.584
123.015
75.1193
29.5989
-9.50545
-39.1931
-57.7417
-64.7845
-61.2297
-49.0406
-30.9144
-9.90457
10.9639
29.0396
42.3135
49.5849
50.5153
45.5735
35.8891
23.0409
8.81333
-5.04798
-17.0492
-26.1088
-31.6495
-33.6194
-32.4449
-28.9298
-24.119
-19.1458
-15.0844
-12.8247
-12.9819
-15.8488
-21.3909
-29.2817
-38.968
-49.7565
-60.9058
-71.7152
-81.5966
-90.1246
-97.0586
-102.339
-106.058
-108.416
-109.665
-110.056
-109.789
-108.979
-107.64
-105.681
-102.927
-99.1413
-94.061
-87.4343
-79.0515
-68.7728
-56.5475
-42.4258
-26.563
-9.21625
9.26425
28.4506
47.8578
66.9696
85.2681
102.265
117.535
130.739
141.654
150.18
156.345
160.298
162.285
162.626
161.677
159.79
157.283
154.409
151.339
148.154
144.853
141.373
137.615
133.477
128.881
123.802
118.279
112.421
106.398
100.423
94.7275
89.5294
85.0078
81.2761
78.3645
76.2102
74.6578
73.4693
72.3438
70.9445
68.9316
65.996
61.8917
56.4605
49.6475
41.5056
32.1873
21.9273
11.0178
-0.219287
-11.4594
-22.3986
-32.7705
-42.3567
-50.9906
-58.5565
-64.985
-70.2475
-74.3508
-77.3328
-79.2593
-80.2219
-80.3364
-79.741
-78.5939
-77.0699
-75.3556
-73.6419
-72.1153
-70.9462
-70.274
-70.1923
-70.7322
-71.8482
-73.4084
-75.1911
-76.892
-78.1411
-78.5312
-77.6555
-75.1503
-70.7375
-64.2625
-55.7196
-45.2627
-33.1979
-19.9575
-6.05969
7.94264
21.5175
34.2057
45.6638
55.6908
64.2366
71.3909
77.3533
82.3896
86.7786
90.7548
94.4538
97.864
100.789
102.826
103.363
101.595
96.5803
87.3119
72.8325
52.3708
25.4948
-7.73376
-46.6289
-89.7955
-135.116
-179.825
-220.685
-254.247
-277.19
-286.693
-280.797
-258.71
-221.005
-169.676
-108.034
-40.4398
28.0918
92.3848
147.625
189.852
216.363
225.971
219.096
197.668
164.871
124.754
81.7543
40.2125
3.91403
-24.2742
-42.6418
-50.7254
-49.2521
-39.9518
-25.2709
-8.02764
8.9458
23.1316
32.5889
36.1262
33.3695
24.7293
11.2775
-5.44152
-23.6392
-41.5173
-57.4822
-70.314
-79.2753
-84.1513
-85.2242
-83.1905
-79.037
-73.8939
-68.8855
-64.9965
-62.9678
-63.2312
-65.8878
-70.7267
-77.2779
-84.8908
-92.8239
-100.336
-106.769
-111.606
-114.516
-115.363
-114.193
-111.206
-106.706
-101.047
-94.5825
-87.6224
-80.402
-73.0712
-65.6992
-58.2947
-50.8353
-43.3003
-35.7007
-28.1002
-20.6242
-13.4558
-6.81806
-0.94815
3.93469
7.66036
10.1344
11.3557
11.4216
10.5222
8.92147
6.93001
4.87279
3.05567
1.73559
1.09784
1.24279
2.18266
3.84749
6.09828
8.74468
11.5644
14.3226
16.789
18.7537
20.04
20.5154
20.1008
18.7776
16.5916
13.6531
10.132
6.24788
2.25295
-1.58868
-5.02605
-7.84673
-9.89986
-11.113
-11.5001
-11.158
-10.2522
-8.9921
-7.60086
-6.28206
-5.1898
-4.40554
-3.92542
-3.65964
-3.44403
-3.062
-2.27396
-0.850213
1.39674
4.58433
8.73963
13.7886
19.5557
25.7744
32.1057
38.1657
43.5558
47.8967
50.8605
52.1997
51.7697
49.5439
45.6192
40.2114
33.641
26.3093
18.6664
11.1737
4.26219
-1.70898
-6.48944
-9.96609
-12.1778
-13.3129
-13.6873
-13.7036
-13.7946
-14.3571
-15.6859
-17.9168
-20.9889
-24.6355
-28.4049
-31.7125
-33.917
-34.4096
-32.7051
-28.518
-21.8144
-12.8293
-2.04584
9.86097
22.1091
33.9107
44.5753
53.5994
60.7292
65.9866
69.6549
72.2256
74.3136
76.5524
79.4838
83.4557
88.5413
94.4877
100.7
106.261
109.978
110.47
106.263
95.9143
78.16
52.0696
17.2205
-26.1316
-76.9028
-133.084
-191.731
-249.072
-300.753
-342.209
-369.148
-378.066
-366.756
-334.705
-283.317
-215.927
-137.559
-54.4651
26.514
98.6864
156.251
194.942
212.493
208.858
186.153
148.348
100.733
49.2506
-0.223076
-42.5519
-73.8823
-91.9948
-96.43
-88.3873
-70.4271
-46.0274
-19.0637
6.7138
28.1395
42.973
50.0892
49.5044
42.2529
30.1418
15.4295
0.477139
-12.5768
-22.0782
-27.0247
-27.1272
-22.7664
-14.8633
-4.69129
6.33797
16.8798
25.8249
32.4114
36.2687
37.3988
36.1026
32.8729
28.2748
22.8353
16.9581
10.8769
4.64713
-1.82448
-8.72509
-16.2669
-24.619
-33.8513
-43.9001
-54.5577
-65.4871
-76.2559
-86.3833
-95.3904
-102.849
-108.417
-111.865
-113.084
-112.08
-108.958
-103.899
-97.1366
-88.928
-79.5385
-69.2262
-58.235
-46.7936
-35.1188
-23.4204
-11.9067
-0.787061
9.72859
19.4344
28.1365
35.6636
41.878
46.6862
50.0461
51.9715
52.5312
51.8443
50.0705
47.3988
44.0333
40.1795
36.0321
31.7645
27.5219
23.4181
19.5349
15.9245
12.6141
9.61123
6.90948
4.49477
2.35068
0.463229
-1.17533
-2.56386
-3.69111
-4.53588
-5.06884
-5.25573
-5.06173
-4.45667
-3.42039
-1.94788
-0.0533185
2.22723
4.83487
7.68892
10.6898
13.7236
16.6682
19.3998
21.8007
23.7654
25.2071
26.0617
26.2899
25.8765
24.8271
23.1624
20.9113
18.1038
14.7657
10.9169
6.57229
1.74765
-3.53235
-9.22475
-15.26
-21.5368
-27.9216
-34.2537
-40.3562
-46.0502
-51.1725
-55.5924
-59.2261
-62.0465
-64.0874
-65.4404
-66.2463
-66.6799
-66.9316
-67.185
-67.5933
-68.2564
-69.2
-70.3608
-71.5795
-72.6041
-73.1065
-72.7105
-71.0305
-67.7166
-62.5008
-55.2382
-45.9382
-34.7788
-22.1038
-8.40077
5.73759
19.6644
32.7357
44.3657
54.0742
61.5167
66.4918
68.9221
68.8057
66.144
60.8557
52.694
41.1913
25.6565
5.24511
-20.885
-53.3429
-92.2259
-136.845
-185.518
-235.485
-283.015
-323.689
-352.876
-366.318
-360.75
-334.457
-287.665
-222.696
-143.852
-57.0315
30.8833
112.776
182.087
233.546
263.736
271.43
257.663
225.528
179.744
126.051
70.5249
18.8875
-24.091
-55.0385
-72.2307
-75.6293
-66.7216
-48.1969
-23.5137
3.57975
29.511
51.2776
66.7313
74.7277
75.1379
68.7346
56.9822
41.7652
25.0974
8.85081
-5.46612
-16.8556
-24.8948
-29.7178
-31.927
-32.4537
-32.3926
-32.8339
-34.7164
-38.7184
-45.1943
-54.1622
-65.3348
-78.1851
-92.0338
-106.144
-119.809
-132.427
-143.548
-152.9
-160.388
-166.069
-170.116
-172.771
-174.296
-174.929
-174.85
-174.153
-172.842
-170.828
-167.954
-164.016
-158.799
-152.117
-143.846
-133.953
-122.516
-109.729
-95.8938
-81.4029
-66.7081
-52.2849
-38.5939
-26.0443
-14.9639
-5.57697
2.00634
7.78944
11.8784
14.4622
15.7877
16.1308
15.7697
14.9598
13.9157
12.7985
11.7118
10.7037
9.77398
8.88658
7.98315
6.99817
5.87333
4.57075
3.08405
1.44667
-0.263375
-1.92335
-3.37106
-4.41643
-4.85938
-4.51315
-3.23096
-0.932716
2.37223
6.57043
11.4411
16.6666
21.8562
26.5817
30.4204
33.001
34.0455
33.4029
31.0692
27.1915
22.0558
16.0596
9.67299
3.39352
-2.30057
-6.99191
-10.3562
-12.1811
-12.371
-10.9369
-7.9767
-3.64818
1.85772
8.33887
15.5944
23.4252
31.6233
39.9529
48.1292
55.8013
62.5467
67.8827
71.2958
72.2885
70.4378
65.4561
57.2461
45.9377
31.9022
15.7363
-1.78117
-19.7561
-37.2618
-53.4253
-67.5064
-78.9575
-87.4579
-92.9159
-95.4425
-95.2999
-92.8353
-88.412
-82.3492
-74.8811
-66.1407
-56.1712
-44.9605
-32.4927
-18.8053
-4.04114
11.5148
27.4216
43.0958
57.8508
70.9579
81.7207
89.5518
94.0427
95.0139
92.5414
86.9499
78.7756
68.697
57.4395
45.6647
33.8525
22.196
10.5239
-1.72848
-15.4839
-31.9109
-52.2356
-77.4915
-108.236
-144.284
-184.497
-226.707
-267.777
-303.844
-330.716
-344.382
-341.567
-320.25
-280.06
-222.488
-150.865
-70.1061
13.768
94.2548
165.074
220.852
257.702
273.623
268.676
244.915
206.096
157.199
103.84
51.6404
5.63213
-30.2293
-53.3995
-62.8982
-59.2774
-44.4238
-21.2329
6.79715
35.9976
62.9356
84.7534
99.4077
105.796
103.763
94.0112
77.9209
57.3236
34.2519
10.6969
-11.6006
-31.3082
-47.5962
-60.168
-69.2283
-75.4009
-79.6091
-82.9373
-86.4881
-91.2532
-98.0081
-107.242
-119.126
-133.515
-149.993
-167.932
-186.582
-205.15
-222.896
-239.191
-253.576
-265.779
-275.713
-283.447
-289.155
-293.053
-295.335
-296.116
-295.385
-292.989
-288.646
-281.979
-272.582
-260.096
-244.292
-225.145
-202.88
-177.994
-151.244
-123.593
-96.1343
-69.9919
-46.2172
-25.6884
-9.02938
3.44425
11.7457
16.2014
17.4028
16.1307
13.2626
9.67472
6.14887
3.29684
1.5092
0.933875
1.48558
2.88352
4.71116
6.48978
7.75568
8.13092
7.37859
5.43575
2.42062
-1.38607
-5.58174
-9.69822
-13.265
-15.8705
-17.2127
-17.1332
-15.63
-12.8499
-9.06016
-4.6071
0.133742
4.80794
9.12593
12.8943
16.0308
18.5615
20.6014
22.3221
23.9116
25.534
27.2938
29.2128
31.2204
33.1615
34.8173
35.9385
36.2831
35.6546
33.9336
31.0988
27.2338
22.5202
17.2163
11.6275
6.07042
0.837617
-3.83166
-7.77115
-10.8943
-13.1874
-14.6912
-15.474
-15.6023
-15.1149
-14.0056
-12.2183
-9.65715
-6.20824
-1.77157
3.70423
10.19
17.5535
25.5511
33.836
41.9846
49.5372
56.0495
61.1482
64.5841
66.2741
66.3263
65.0429
62.8975
60.4866
58.4574
57.4159
57.8234
59.8901
63.4777
68.0245
72.5103
75.4741
75.1024
69.3937
56.4008
34.5342
2.89576
-38.4034
-88.001
-143.174
-199.912
-253.191
-297.452
-327.222
-337.826
-326.059
-290.748
-233.091
-156.698
-67.3415
27.6083
119.96
201.616
265.498
306.361
321.385
310.48
276.257
223.677
159.431
91.1385
26.4545
-27.7855
-66.2954
-85.8552
-85.565
-66.8195
-33.0208
10.923
59.2422
106.01
145.821
174.369
188.859
188.221
173.11
145.713
109.386
68.1931
26.3932
-12.057
-43.9255
-67.0129
-80.3175
-84.0506
-79.5127
-68.8556
-54.7683
-40.1297
-27.6695
-19.6764
-17.7807
-22.8287
-34.855
-53.1444
-76.3707
-102.787
-130.444
-157.408
-181.959
-202.742
-218.869
-229.957
-236.109
-237.844
-235.992
-231.557
-225.584
-219.027
-212.644
-206.917
-202.022
-197.828
-193.941
-189.772
-184.631
-177.831
-168.79
-157.117
-142.676
-125.628
-106.421
-85.7681
-64.5724
-43.8464
-24.6086
-7.78241
5.8954
15.945
22.1855
24.7437
24.0314
20.6926
15.5297
9.41723
3.21325
-2.32141
-6.58759
-9.18975
-9.95212
-8.90891
-6.27178
-2.38023
2.35742
7.52395
12.7461
17.7334
22.2995
26.3637
29.935
33.0832
35.9025
38.4751
40.8417
42.9832
44.8179
46.2136
47.0114
47.0586
46.2418
44.5164
41.9254
38.6041
34.7703
30.6999
26.692
23.0287
19.936
17.5507
15.8999
14.8952
14.3431
13.9695
13.4556
12.4788
10.7552
8.07523
4.3305
-0.472837
-6.21456
-12.6742
-19.5556
-26.5194
-33.2171
-39.3254
-44.5728
-48.7594
-51.7623
-53.5303
-54.0644
-53.3887
-51.5151
-48.4091
-43.9628
-37.9834
-30.2007
-20.2996
-7.97285
7.00816
24.7162
44.9961
67.4113
91.2216
115.399
138.684
159.685
177.002
189.368
195.787
195.658
188.854
175.761
157.251
134.6
109.352
83.1354
57.4534
33.4779
11.8694
-7.33962
-24.7693
-41.6033
-59.3813
-79.6892
-103.787
-132.233
-164.582
-199.217
-233.375
-263.386
-285.107
-294.501
-288.267
-264.435
-222.809
-165.187
-95.3086
-18.5219
58.7835
129.911
188.647
230.009
250.829
250.12
229.154
191.267
141.416
85.5488
29.8856
-19.799
-58.8045
-83.9664
-93.9077
-89.0598
-71.4681
-44.4213
-11.961
21.6556
52.4744
77.2798
93.9025
101.373
99.9144
90.7957
76.0675
58.232
39.8885
23.4015
10.6291
2.73813
0.121317
2.41552
8.61062
17.2273
26.5367
34.7924
40.4466
42.3255
39.7483
32.5782
21.2063
6.47419
-10.4513
-28.2325
-45.5251
-61.1322
-74.1302
-83.9546
-90.4363
-93.7892
-94.5513
-93.4909
-91.4898
-89.4192
-88.0236
-87.8245
-89.0553
-91.6321
-95.1612
-98.9829
-102.242
-103.98
-103.24
-99.1703
-91.1221
-78.7337
-61.9891
-41.2492
-17.2496
8.93521
35.9622
62.3195
86.4486
106.879
122.365
132.004
135.338
132.406
123.759
110.417
93.7779
75.4899
57.29
40.8347
27.5378
18.4355
14.0927
14.5618
19.3958
27.7158
38.3203
49.8254
60.8155
69.99
76.2859
78.9676
77.6729
72.4158
63.5477
51.6869
37.6262
22.2331
6.35442
-9.26298
-24.0289
-37.5396
-49.582
-60.117
-69.2479
-77.1806
-84.1837
-90.5515
-96.574
-102.513
-108.582
-114.932
-121.638
-128.68
-135.936
-143.168
-150.02
-156.028
-160.642
-163.269
-163.322
-160.295
-153.829
-143.785
-130.294
-113.789
-95.0023
-74.9221
-54.7198
-35.6391
-18.8658
-5.38938
4.12358
9.4273
10.7472
8.7717
4.57992
-0.488425
-5.00706
-7.65725
-7.41402
-3.69628
3.54321
13.8027
26.0945
39.0777
51.2376
61.0865
67.3485
69.1021
65.8566
57.5546
44.5073
27.2848
6.59163
-16.8356
-42.2813
-69.038
-96.3326
-123.215
-148.453
-170.467
-187.362
-197.053
-197.502
-187.015
-164.563
-130.07
-84.5883
-30.3531
29.3424
90.4207
148.424
198.992
238.348
263.728
273.681
268.213
248.741
217.889
179.13
136.358
93.4365
53.7861
20.0665
-6.01541
-23.7596
-33.3988
-35.9213
-32.829
-25.8731
-16.8057
-7.18069
1.77939
9.24141
14.7523
18.1764
19.6011
19.2312
17.2937
13.9671
9.3431
3.4238
-3.85188
-12.5607
-22.7391
-34.331
-47.1501
-60.8642
-75.0049
-89.0023
-102.239
-114.116
-124.125
-131.909
-137.314
-140.416
-141.523
-141.151
-139.967
-138.723
-138.168
-138.954
-141.557
-146.198
-152.804
-160.98
-170.026
-178.985
-186.726
-192.051
-193.822
-191.097
-183.252
-170.074
-151.822
-129.227
-103.447
-75.9634
-48.446
-22.5853
0.0753701
18.2928
31.2441
38.5985
40.5353
37.7065
31.1509
22.1702
12.1853
2.58657
-5.40216
-10.8342
-13.113
-12.0235
-7.72012
-0.678326
8.38481
18.6071
29.0842
38.9658
47.5361
54.2701
58.8627
61.2297
61.4842
59.8942
56.8281
52.6973
47.9024
42.7901
37.6241
32.5727
27.7119
23.0408
18.5073
14.036
9.5566
5.02625
0.444385
-4.14226
-8.64399
-12.9404
-16.8978
-20.3887
-23.3099
-25.5963
-27.2276
-28.2289
-28.6625
-28.6148
-28.1792
-27.4383
-26.4477
-25.224
-23.7387
-21.918
-19.6506
-16.8002
-13.2246
-8.79553
-3.42117
2.9357
10.2436
18.3961
27.2139
36.4557
45.8371
55.0545
63.8114
71.8438
78.9421
84.9651
89.8466
93.5923
96.2695
97.9884
98.8793
99.0647
98.6278
97.5782
95.8128
93.0767
88.9261
82.7049
73.545
60.4082
42.1803
17.8254
-13.4069
-51.7431
-96.6532
-146.675
-199.34
-251.251
-298.319
-336.154
-360.574
-368.153
-356.732
-325.816
-276.772
-212.802
-138.669
-60.2244
16.2286
84.6268
139.819
178.12
197.686
198.653
183.043
154.445
117.526
77.4395
39.2119
7.17606
-15.472
-26.9526
-26.9928
-16.7313
1.53855
24.7424
49.4617
72.3744
90.6463
102.228
106.033
101.977
90.9041
74.3907
54.4935
33.4548
13.4147
-3.83741
-17.0446
-25.5839
-29.4804
-29.3426
-26.2333
-21.4987
-16.5799
-12.8316
-11.3685
-12.956
-17.9526
-26.3061
-37.599
-51.1305
-66.0236
-81.3406
-96.1915
-109.825
-121.692
-131.477
-139.098
-144.682
-148.509
-150.96
-152.443
-153.342
-153.959
-154.489
-155
-155.438
-155.64
-155.366
-154.328
-152.228
-148.788
-143.784
-137.06
-128.547
-118.267
-106.333
-92.9432
-78.3736
-62.9646
-47.1072
-31.2252
-15.7562
-1.1289
12.2597
24.0685
34.0335
41.986
47.8638
51.7142
53.6881
54.0244
53.0274
51.037
48.3982
45.4304
42.4018
39.5106
36.8763
34.5397
32.4728
30.5953
28.7964
26.9572
24.9722
22.7662
20.3051
17.6
14.7039
11.7031
8.70406
5.81882
3.15007
0.778951
-1.24366
-2.9013
-4.21143
-5.22072
-5.99721
-6.62061
-7.17217
-7.72561
-8.34002
-9.05563
-9.89258
-10.8526
-11.9226
-13.0806
-14.3009
-15.5602
-16.8418
-18.1383
-19.4525
-20.7944
-22.1768
-23.6066
-25.0752
-26.5475
-27.9528
-29.1787
-30.0702
-30.4358
-30.0617
-28.7314
-26.251
-22.4756
-17.3347
-10.8507
-3.15004
5.53732
14.8897
24.5168
33.9918
42.8887
50.8221
57.4823
62.661
66.2622
68.294
68.8366
67.9878
65.7891
62.1415
56.7262
48.9499
37.9371
22.5894
1.72425
-25.7099
-60.3621
-102.191
-150.213
-202.353
-255.438
-305.376
-347.516
-377.159
-390.152
-383.482
-355.781
-307.643
-241.718
-162.526
-76.0385
10.9496
91.5543
159.56
210.094
240.135
248.789
237.311
208.878
168.137
120.621
72.0774
27.8295
-7.78687
-31.8251
-42.9432
-41.4169
-28.9652
-8.42215
16.6916
42.6406
65.929
83.6852
93.9379
95.7604
89.2776
75.5495
56.354
33.9077
10.56
-11.497
-30.4735
-45.1542
-54.9865
-60.0819
-61.1384
-59.3006
-55.9815
-52.6683
-50.7384
-51.3052
-55.1084
-62.4587
-73.2357
-86.9366
-102.764
-119.736
-136.814
-153.016
-167.515
-179.715
-189.283
-196.153
-200.493
-202.653
-203.088
-202.277
-200.651
-198.526
-196.062
-193.242
-189.879
-185.644
-180.116
-172.84
-163.395
-151.458
-136.854
-119.592
-99.8844
-78.1434
-54.9548
-31.0393
-7.19958
15.7391
36.9887
55.8544
71.7806
84.386
93.4828
99.0817
101.382
100.748
97.6745
92.7439
86.5808
79.8041
72.9839
66.6045
61.0371
56.5249
53.1788
50.9863
49.8299
49.5132
49.7918
50.405
51.1054
51.6834
51.9843
51.9164
51.4518
50.6182
49.4852
48.1472
46.7043
45.2453
43.8329
42.4945
41.2189
39.9582
38.6361
37.1592
35.4321
33.3719
30.922
28.0623
24.8154
21.2472
17.4611
13.5869
9.76518
6.12806
2.77977
-0.22028
-2.86897
-5.22272
-7.39125
-9.52157
-11.7743
-14.2949
-17.185
-20.4775
-24.1198
-27.9697
-31.8032
-35.3353
-38.2517
-40.2451
-41.0547
-40.5001
-38.5077
-35.1243
-30.5168
-24.9584
-18.8013
-12.4419
-6.28051
-0.68231
4.05696
7.73602
10.2616
11.6493
12.0119
11.5375
10.4581
9.01341
7.40852
5.7693
4.09517
2.2117
-0.272494
-3.99638
-9.8527
-18.9549
-32.5504
-51.8719
-77.928
-111.252
-151.64
-197.935
-247.899
-298.234
-344.774
-382.858
-407.842
-415.7
-403.615
-370.479
-317.201
-246.774
-164.069
-75.3768
12.2611
91.8242
157.104
203.397
228.015
230.546
212.835
178.7
133.421
83.0815
33.8418
-8.75434
-40.363
-58.2475
-61.4709
-50.8667
-28.8051
1.20148
34.9946
68.3019
97.2378
118.718
130.745
132.542
124.534
108.189
85.7574
59.9365
33.5226
9.07953
-11.3317
-26.3394
-35.3485
-38.5301
-36.7223
-31.2638
-23.7873
-15.9991
-9.47493
-5.49088
-4.90849
-8.11974
-15.0526
-25.2299
-37.8682
-52.0015
-66.6111
-80.7472
-93.6262
-104.697
-113.67
-120.508
-125.392
-128.652
-130.695
-131.921
-132.658
-133.103
-133.294
-133.107
-132.277
-130.446
-127.229
-122.279
-115.354
-106.373
-95.4493
-82.8934
-69.1982
-54.9925
-40.9786
-27.8599
-16.2664
-6.68991
0.565108
5.40732
7.96001
8.53796
7.60355
5.70835
3.42751
1.29518
-0.25169
-0.915141
-0.559536
0.78519
2.93973
5.60832
8.42381
10.9995
12.9812
14.0935
14.175
13.1978
11.2699
8.61907
5.56215
2.462
-0.320827
-2.47604
-3.78463
-4.14763
-3.59882
-2.29984
-0.518279
1.40805
3.11614
4.26604
4.58602
3.90892
2.19509
-0.460904
-3.84047
-7.62651
-11.4409
-14.8891
-17.6056
-19.2958
-19.7676
-18.9503
-16.8992
-13.7847
-9.8698
-5.47815
-0.957601
3.35624
7.17207
10.2673
12.5023
13.8244
14.2616
13.9086
12.9085
11.4316
9.65776
7.76229
5.908
4.2442
2.91113
2.04801
1.80203
2.33521
3.82633
6.46588
10.4427
15.9227
23.0213
31.7726
42.1003
53.7953
66.5044
79.7355
92.8789
105.246
116.122
124.826
130.77
133.522
132.844
128.723
121.375
111.228
98.8871
85.0663
70.5183
55.9404
41.8783
28.6298
16.1602
4.04199
-8.56471
-22.8769
-40.3842
-62.6698
-91.1635
-126.848
-169.958
-219.723
-274.206
-330.296
-383.88
-430.191
-464.318
-481.801
-479.237
-454.809
-408.647
-342.957
-261.899
-171.213
-77.6388
11.7982
90.5368
153.174
196.013
217.404
217.833
199.764
167.266
125.472
79.9486
36.0661
-1.57325
-29.5676
-45.9766
-50.3914
-43.8205
-28.4224
-7.13012
16.7768
40.097
60.0767
74.6865
82.7796
84.1253
79.3261
69.641
56.7462
42.4699
28.5372
16.3557
6.86597
0.467339
-2.9776
-4.06989
-3.74857
-3.13424
-3.36504
-5.44625
-10.1309
-17.8422
-28.643
-42.2491
-58.0817
-75.3467
-93.1301
-110.497
-126.58
-140.658
-152.201
-160.902
-166.674
-169.628
-170.035
-168.269
-164.759
-159.923
-154.132
-147.664
-140.696
-133.292
-125.427
-117.002
-107.891
-97.9738
-87.1737
-75.4891
-63.0101
-49.9235
-36.5024
-23.0839
-10.0377
2.26982
13.5118
23.4315
31.8646
38.7505
44.132
48.1432
50.9893
52.9197
54.1988
55.0777
55.7697
56.4327
57.159
57.9732
58.8369
59.6607
60.3179
60.6617
60.5412
59.8163
58.37
56.1192
53.0223
49.0848
44.3623
38.961
33.0341
26.7759
20.4099
14.1759
8.31195
3.03725
-1.46586
-5.06651
-7.6959
-9.35223
-10.0993
-10.0592
-9.39984
-8.31854
-7.02425
-5.71921
-4.58229
-3.75512
-3.33198
-3.3542
-3.8094
-4.63561
-5.73015
-6.96243
-8.18958
-9.27331
-10.0962
-10.5758
-10.674
-10.4022
-9.82002
-9.02904
-8.16162
-7.36682
-6.79441
-6.5789
-6.82469
-7.59359
-8.89547
-10.6824
-12.8469
-15.2239
-17.5976
-19.7127
-21.2904
-22.0483
-21.7241
-20.0999
-17.027
-12.4456
-6.39884
0.961975
9.38293
18.5236
27.9824
37.3299
46.1446
54.0489
60.7404
66.0151
69.7796
72.0527
72.9544
72.6857
71.5002
69.6703
67.4496
65.0342
62.5216
59.87
56.8589
53.0536
47.7814
40.1293
28.9744
13.0622
-8.8592
-37.8473
-74.5277
-118.84
-169.807
-225.385
-282.436
-336.868
-383.955
-418.807
-436.95
-434.935
-410.881
-364.859
-299.065
-217.714
-126.682
-32.9176
56.2947
134.127
194.949
234.922
252.378
247.922
224.278
185.882
138.3
87.5412
39.3642
-1.34737
-31.0596
-47.8712
-51.5818
-43.5535
-26.3988
-3.54771
21.244
44.3799
62.843
74.5043
78.2941
74.2254
63.2821
47.1974
28.1594
8.4888
-9.6712
-24.613
-35.2445
-41.1747
-42.7026
-40.7192
-36.5427
-31.7132
-27.7764
-26.0851
-27.6405
-32.9909
-42.1948
-54.8468
-70.1577
-87.0737
-104.416
-121.025
-135.883
-148.213
-157.539
-163.702
-166.84
-167.331
-165.722
-162.633
-158.679
-154.385
-150.13
-146.114
-142.348
-138.665
-134.763
-130.254
-124.724
-117.799
-109.198
-98.7831
-86.5831
-72.8028
-57.808
-42.0926
-26.2308
-10.82
3.57824
16.4911
27.5774
36.6535
43.7017
48.8592
52.3923
54.657
56.0545
56.9843
57.8028
58.7908
60.1323
61.9075
64.0983
66.6039
69.2652
71.8925
74.2928
76.295
77.768
78.6318
78.8602
78.4757
77.5391
76.1335
74.348
72.2609
69.9273
67.3702
64.5789
61.5122
58.1079
54.2962
50.0144
45.2225
39.9154
34.1313
27.9551
21.515
14.9743
8.51829
2.33764
-3.38871
-8.51024
-12.9188
-16.5586
-19.4316
-21.5978
-23.1709
-24.3093
-25.2036
-26.0616
-27.091
-28.4817
-30.3893
-32.9204
-36.1227
-39.9788
-44.4069
-49.2662
-54.3687
-59.4929
-64.4014
-68.8572
-72.638
-75.5482
-77.4255
-78.1455
-77.6217
-75.8055
-72.6852
-68.2861
-62.6715
-55.9443
-48.2491
-39.7715
-30.7358
-21.3974
-12.0313
-2.91614
5.68444
13.5422
20.4825
26.3982
31.2544
35.0833
37.9634
39.9842
41.1969
41.5538
40.8453
38.6449
34.2779
26.8278
15.198
-1.76406
-25.0801
-55.4061
-92.7789
-136.388
-184.422
-234.041
-281.499
-322.44
-352.339
-367.038
-363.315
-339.382
-295.262
-232.942
-156.299
-70.7811
17.1266
100.571
173.062
229.17
265.096
279.043
271.357
244.412
202.272
150.175
93.908
39.1573
-9.08561
-47.001
-72.2478
-84.0774
-83.2561
-71.8222
-52.7184
-29.3583
-5.18118
16.7477
34.049
45.2246
49.7243
47.8908
40.8013
30.0378
17.4223
4.75317
-6.42396
-14.9864
-20.3306
-22.3916
-21.5906
-18.7264
-14.831
-11.0101
-8.29191
-7.50168
-9.1748
-13.5161
-20.4046
-29.4392
-40.014
-51.4112
-62.8969
-73.8074
-83.616
-91.9714
-98.7088
-103.831
-107.471
-109.833
-111.137
-111.562
-111.204
-110.057
-108.011
-104.874
-100.421
-94.4402
-86.7947
-77.4671
-66.5933
-54.4705
-41.5415
-28.3546
-15.5064
-3.5753
6.94498
15.7001
22.5119
27.3924
30.5321
32.2674
33.0306
33.2912
33.4965
34.0186
35.1156
36.9095
39.3838
42.3979
45.7163
49.0469
52.0822
54.5392
56.1918
56.8929
56.5845
55.2967
53.1352
50.2627
46.8753
43.1782
39.3649
35.5994
32.0056
28.6625
25.6061
22.8348
20.3192
18.0124
15.8608
13.8132
11.8278
9.87617
7.94463
6.03289
4.15041
2.31099
0.526381
-1.20038
-2.88099
-4.54634
-6.24851
-8.05971
-10.0678
-12.3686
-15.0556
-18.2088
-21.8822
-26.0947
-30.823
-35.9982
-41.5077
-47.201
-52.899
-58.4058
-63.5221
-68.057
-71.8394
-74.7263
-76.6077
-77.4092
-77.0908
-75.645
-73.0919
-69.4763
-64.8635
-59.3374
-52.9988
-45.9656
-38.372
-30.368
-22.1173
-13.7928
-5.57067
2.37774
9.89511
16.8475
23.1319
28.6807
33.4605
37.4625
40.6843
43.1001
44.6216
45.0517
44.0368
41.0287
35.2675
25.8019
11.56
-8.52071
-35.3053
-69.2322
-110.073
-156.727
-207.1
-258.111
-305.859
-345.954
-373.976
-386.024
-379.257
-352.362
-305.859
-242.187
-165.563
-81.5932
3.29059
82.5111
150.053
201.106
232.557
243.279
234.185
208.043
169.085
122.471
73.6745
27.8683
-10.612
-38.6738
-54.6992
-58.5892
-51.6281
-36.1999
-15.4023
7.38791
28.9404
46.5381
58.2467
63.0628
60.9352
52.668
39.729
23.9969
7.48278
-7.93696
-20.7441
-29.9365
-35.1056
-36.4344
-34.6204
-30.7431
-26.0956
-22.0047
-19.6627
-19.9902
-23.5427
-30.4697
-40.525
-53.1233
-67.4314
-82.4803
-97.2834
-110.944
-122.743
-132.195
-139.072
-143.391
-145.375
-145.389
-143.872
-141.258
-137.915
-134.096
-129.915
-125.344
-120.237
-114.362
-107.461
-99.2934
-89.6921
-78.5981
-66.0848
-52.3629
-37.7686
-22.7362
-7.75956
6.65251
20.0221
31.9436
42.1164
50.3661
56.6524
61.0631
63.797
65.136
65.4124
64.9731
64.1461
63.2112
62.3796
61.7812
61.4631
61.3969
61.4934
61.6232
61.6398
61.402
60.794
59.7403
58.2138
56.2376
53.8796
51.2424
48.4492
45.628
42.8968
40.3515
38.0569
36.0432
34.3069
32.8159
31.5167
30.3442
29.2295
28.1074
26.9198
25.6174
24.1576
22.5018
20.6112
18.4449
15.9591
13.1093
9.85549
6.16889
2.03928
-2.51812
-7.45853
-12.7069
-18.1612
-23.7006
-29.1953
-34.5194
-39.5627
-44.2404
-48.4983
-52.3134
-55.6888
-58.6431
-61.1969
-63.3574
-65.1043
-66.3791
-67.0815
-67.072
-66.1846
-64.2458
-61.0997
-56.6351
-50.8111
-43.6761
-35.378
-26.1626
-16.3594
-6.35675
3.43143
12.6033
20.8057
27.7661
33.3149
37.3964
40.0664
41.4772
41.8505
41.44
40.4853
39.159
37.5093
35.4015
32.4664
28.0638
21.277
10.9513
-4.20793
-25.4729
-53.8714
-89.928
-133.405
-183.096
-236.718
-290.954
-341.663
-384.258
-414.203
-427.586
-421.664
-395.311
-349.287
-286.277
-210.692
-128.239
-45.3202
31.6666
97.0228
146.364
177.063
188.48
181.947
160.523
128.554
91.1143
53.381
20.0462
-5.18362
-19.9359
-23.3394
-16.0022
0.18291
22.3705
47.1817
71.1532
91.1598
104.762
110.442
107.711
97.0851
79.9377
58.271
34.4251
10.7748
-10.5519
-27.9011
-40.2453
-47.2477
-49.2404
-47.1271
-42.2277
-36.0913
-30.2993
-26.2847
-25.1847
-27.7414
-34.2555
-44.5923
-58.2351
-74.3734
-92.013
-110.093
-127.599
-143.651
-157.575
-168.936
-177.545
-183.432
-186.803
-187.982
-187.345
-185.262
-182.047
-177.928
-173.026
-167.363
-160.877
-153.453
-144.956
-135.273
-124.346
-112.203
-98.9728
-84.8945
-70.311
-55.649
-41.3889
-28.0269
-16.032
-5.80414
2.36212
8.30526
12.0111
13.6129
13.377
11.6751
8.94792
5.6621
2.26739
-0.842557
-3.36125
-5.08931
-5.94194
-5.94388
-5.21327
-3.93715
-2.34199
-0.662998
0.884192
2.12649
2.9488
3.30102
3.19665
2.70406
1.93239
1.01433
0.0882079
-0.718243
-1.30082
-1.58717
-1.54016
-1.15645
-0.4611
0.500763
1.67409
3.00482
4.45067
5.99118
7.63645
9.43374
11.4715
13.8795
16.8253
20.5044
25.1255
30.8908
37.9714
46.4818
56.4543
67.8188
80.3912
93.8716
107.856
121.862
135.363
147.832
158.79
167.847
174.74
179.356
181.741
182.09
180.723
178.05
174.519
170.567
166.57
162.8
159.394
156.333
153.449
150.434
146.877
142.308
136.254
128.297
118.132
105.616
90.8082
73.9836
55.6311
36.4257
17.1791
-1.22625
-17.9146
-32.0971
-43.145
-50.6487
-54.4553
-54.6801
-51.6906
-46.0667
-38.5388
-29.9147
-21.0009
-12.5279
-5.08884
0.905154
5.24646
7.92992
9.13012
9.16101
8.42303
7.34388
6.31824
5.651
5.50642
5.86469
6.48584
6.8823
6.303
3.73597
-2.06027
-12.4837
-28.9626
-52.7722
-84.7999
-125.285
-173.569
-227.916
-285.443
-342.214
-393.521
-434.32
-459.804
-466.019
-450.444
-412.437
-353.473
-277.128
-188.789
-95.1308
-3.41769
79.2814
146.857
194.808
220.695
224.335
207.742
174.802
130.752
81.5331
33.0897
-9.27969
-41.4603
-60.8822
-66.6773
-59.6272
-41.9247
-16.7916
11.9898
40.5683
65.4796
84.0139
94.4601
96.2091
89.7169
76.3442
58.1038
37.3537
16.4788
-2.40161
-17.6666
-28.3451
-34.1755
-35.5737
-33.5225
-29.4014
-24.7827
-21.2206
-20.0587
-22.2782
-28.4004
-38.4527
-51.9951
-68.2016
-85.9816
-104.122
-121.438
-136.898
-149.734
-159.503
-166.102
-169.746
-170.906
-170.222
-168.399
-166.107
-163.893
-162.114
-160.903
-160.166
-159.604
-158.769
-157.129
-154.147
-149.35
-142.392
-133.102
-121.506
-107.823
-92.4532
-75.9317
-58.8835
-41.9657
-25.8123
-10.9848
2.06651
13.0275
21.731
28.1527
32.3955
34.6643
35.2363
34.4288
32.5697
29.9717
26.9141
23.6301
20.3028
17.066
14.01
11.1903
8.6371
6.36449
4.37769
2.67827
1.26668
0.142694
-0.695945
-1.25572
-1.54982
-1.60003
-1.43775
-1.10366
-0.646115
-0.118401
0.424813
0.931315
1.35499
1.65884
1.81692
1.8152
1.65103
1.33164
0.87164
0.29009
-0.392588
-1.15727
-1.98794
-2.87226
-3.80071
-4.76448
-5.75228
-6.74689
-7.72205
-8.64049
-9.45365
-10.1036
-10.527
-10.6613
-10.4519
-9.8596
-8.86792
-7.48815
-5.76192
-3.7605
-1.58051
0.663637
2.84964
4.85868
6.58653
7.95319
8.90977
9.44167
9.56803
9.33743
8.82069
8.10181
7.26821
6.40155
5.57017
4.82383
4.19122
3.68017
3.28029
2.96745
2.7092
2.47054
2.21909
1.92909
1.58386
1.17652
0.709057
0.190163
-0.367798
-0.952044
-1.55241
-2.16366
-2.78696
-3.43017
-4.10738
-4.83763
-5.64337
-6.54885
-7.57889
-8.75808
-10.1106
-11.6607
-13.4335
-15.4556
-17.7563
-20.3672
-23.3205
-26.6464
-30.3679
-34.4949
-39.0172
-43.8976
-49.0664
-54.4177
-59.8081
-65.0594
-69.9647
-74.2975
-77.8247
-80.321
-81.5849
-81.4534
-79.8159
-76.6242
-71.8998
-65.7367
-58.2996
-49.8178
-40.575
-30.8948
-21.1237
-11.6113
-2.69023
5.3437
12.2486
17.8505
22.0528
24.8405
26.2784
26.5026
25.7042
24.1029
21.9107
19.2831
16.2612
12.7075
8.24544
2.21352
-6.34659
-18.652
-36.0739
-59.9601
-91.3899
-130.888
-178.139
-231.757
-289.172
-346.685
-399.703
-443.172
-472.142
-482.401
-471.091
-437.191
-381.803
-308.177
-221.456
-128.177
-35.5778
49.1858
119.822
171.574
201.697
209.689
197.245
167.965
126.848
79.6564
32.2237
-10.1903
-43.4382
-64.8494
-73.3945
-69.6417
-55.5302
-34.0011
-8.54432
17.278
40.2702
57.9542
68.7985
72.3078
68.9754
60.117
47.6188
33.6375
20.2964
9.41401
2.29615
-0.387907
1.36076
6.92345
15.1879
24.7219
33.9702
41.4491
45.9151
46.4906
42.7358
34.6645
22.7063
7.62702
-9.58041
-27.8192
-46.01
-63.1969
-78.6289
-91.8089
-102.51
-110.758
-116.791
-120.998
-123.845
-125.807
-127.296
-128.619
-129.933
-131.241
-132.397
-133.128
-133.081
-131.87
-129.132
-124.576
-118.025
-109.449
-98.9724
-86.872
-73.5524
-59.5091
-45.2816
-31.4022
-18.3479
-6.50027
3.88163
12.6733
19.8805
25.6217
30.0989
33.5633
36.2787
38.4894
40.3939
42.1278
43.7578
45.2845
46.6538
47.7739
48.5359
48.8345
48.5866
47.7458
46.3112
44.3302
41.8944
39.131
36.1889
33.2234
30.3801
27.7805
25.5109
23.6163
22.099
20.9231
20.0228
19.3136
18.7051
18.113
17.4687
16.7262
15.8643
14.8854
13.8105
12.6719
11.5047
10.3382
9.18891
8.05501
6.91409
5.72354
4.42407
2.94588
1.21678
-0.82841
-3.23851
-6.0376
-9.2189
-12.7415
-16.531
-20.4828
-24.4701
-28.3523
-31.9859
-35.2347
-37.9782
-40.1182
-41.5827
-42.3267
-42.3308
-41.5978
-40.1492
-38.0206
-35.2582
-31.9158
-28.0538
-23.7379
-19.0398
-14.0373
-8.81384
-3.45829
1.93743
7.28102
12.4836
17.4635
22.1502
26.4869
30.4315
33.9556
37.041
39.6742
41.839
43.5095
44.6444
45.1849
45.0578
44.1845
42.4942
39.9417
36.5244
32.2967
27.3786
21.9551
16.2657
10.5848
5.1937
0.349006
-3.7494
-6.98542
-9.3448
-10.9208
-11.9059
-12.5699
-13.2268
-14.1939
-15.7494
-18.0928
-21.3135
-25.3734
-30.1033
-35.217
-40.3392
-45.0451
-48.907
-51.5411
-52.6507
-52.0578
-49.7227
-45.7467
-40.3603
-33.8973
-26.7591
-19.3739
-12.1546
-5.46267
0.422041
5.31888
9.15271
11.9473
13.8066
14.884
15.3411
15.2966
14.7672
13.6049
11.437
7.62053
1.22537
-8.93667
-24.2208
-45.9876
-75.3729
-113.011
-158.748
-211.398
-268.6
-326.832
-381.608
-427.86
-460.486
-474.973
-468.032
-438.136
-385.867
-314.017
-227.413
-132.471
-36.5365
52.9047
129.041
186.474
221.779
233.83
223.839
195.128
152.664
102.42
50.6639
3.24434
-35.0224
-60.807
-72.5158
-70.3197
-55.9756
-32.479
-3.60145
26.6207
54.3816
76.5281
90.8639
96.3111
92.9234
81.7625
64.6671
43.9515
22.078
1.34435
-16.3779
-29.8271
-38.4427
-42.3634
-42.3393
-39.5783
-35.5512
-31.7816
-29.6491
-30.226
-34.1662
-41.6541
-52.4145
-65.7783
-80.7903
-96.3443
-111.326
-124.745
-135.846
-144.175
-149.614
-152.359
-152.874
-151.8
-149.856
-147.734
-145.996
-145.006
-144.872
-145.443
-146.33
-146.955
-146.638
-144.685
-140.482
-133.589
-123.799
-111.182
-96.0938
-79.1502
-61.1702
-43.0989
-25.9129
-10.5242
2.30965
12.0562
18.4543
21.53
21.5812
19.1358
14.887
9.61586
4.10952
-0.915701
-4.87779
-7.37364
-8.20118
-7.35847
-5.02184
-1.50743
2.77821
7.39194
11.9058
15.9515
19.2529
21.645
23.0779
23.6078
23.3768
22.5857
21.463
20.2354
19.1008
18.2092
17.6506
17.4515
17.5802
17.9572
18.471
18.9957
19.4082
19.6036
19.506
19.0749
18.3064
17.2292
15.8974
14.3805
12.7523
11.0812
9.42155
7.80881
6.25778
4.76426
3.30955
1.86687
0.40831
-1.08871
-2.63664
-4.23543
-5.87274
-7.52663
-9.17001
-10.7759
-12.3224
-13.7964
-15.1951
-16.5255
-17.8013
-19.038
-20.2472
-21.4315
-22.5793
-23.6633
-24.64
-25.4533
-26.0392
-26.333
-26.2764
-25.8248
-24.9518
-23.6524
-21.9422
-19.8545
-17.4346
-14.7338
-11.8025
-8.68536
-5.4186
-2.0293
1.4622
5.03827
8.67885
12.3562
16.0309
19.6488
23.1409
26.425
29.4088
31.9953
34.0888
35.6004
36.4545
36.5933
35.9806
34.6039
32.4753
29.6304
26.1261
22.0373
17.4523
12.4683
7.18596
1.70467
-3.88167
-9.48793
-15.0395
-20.4723
-25.7316
-30.7687
-35.5367
-39.9861
-44.0594
-47.6874
-50.7861
-53.2562
-54.985
-55.8518
-55.7375
-54.5359
-52.1686
-48.5998
-43.8493
-38.0034
-31.2183
-23.7178
-15.7831
-7.73498
0.0891901
7.36183
13.7916
19.1465
23.2704
26.0894
27.607
27.8847
27.0078
25.0374
21.951
17.5773
11.5352
3.19001
-8.35582
-24.2212
-45.6391
-73.7791
-109.507
-153.11
-204.024
-260.626
-320.144
-378.725
-431.697
-474.002
-500.764
-507.911
-492.77
-454.522
-394.463
-315.99
-224.331
-126.027
-28.2438
62.0028
138.599
196.969
234.514
250.807
247.52
228.115
197.339
160.606
123.335
90.3437
65.3544
50.6695
47.0425
53.7419
68.7845
89.2951
111.937
133.358
150.592
161.378
164.369
159.205
146.468
127.532
104.332
79.0884
54.0323
31.1479
11.973
-2.53099
-12.032
-16.8036
-17.6367
-15.7025
-12.3874
-9.12141
-7.21828
-7.74477
-11.4286
-18.6114
-29.2457
-42.9323
-58.9892
-76.5418
-94.6226
-112.271
-128.619
-142.963
-154.808
-163.888
-170.164
-173.794
-175.093
-174.479
-172.414
-169.343
-165.649
-161.608
-157.361
-152.91
-148.121
-142.749
-136.474
-128.95
-119.854
-108.939
-96.0774
-81.2908
-64.7696
-46.8696
-28.0922
-9.04786
9.59326
27.1586
43.0318
56.7062
67.8275
76.2215
81.9024
85.0632
86.0475
85.3076
83.3537
80.6992
77.8101
75.0619
72.7101
70.8759
69.548
68.5995
67.8162
66.9327
65.6714
63.7794
61.0598
57.3935
52.7509
47.193
40.862
33.9656
26.7547
19.4996
12.4663
5.89626
-0.0101992
-5.10386
-9.29111
-12.5329
-14.8389
-16.2593
-16.8742
-16.7832
-16.0955
-14.9223
-13.3708
-11.5401
-9.5195
-7.38817
-5.21569
-3.06333
-0.985304
0.970028
2.75954
4.34515
5.69426
6.78051
7.58485
8.09656
8.3139
8.24422
7.90329
7.31357
6.50141
5.49322
4.31078
2.96611
1.45663
-0.238721
-2.16151
-4.37327
-6.95189
-9.98468
-13.5585
-17.7478
-22.6012
-28.1288
-34.291
-40.9905
-48.0686
-55.3061
-62.4292
-69.1208
-75.0361
-79.8227
-83.1446
-84.7079
-84.2877
-81.7525
-77.0846
-70.3917
-61.9098
-51.9929
-41.0917
-29.7205
-18.4174
-7.69876
1.98403
10.2829
16.9809
22.0056
25.4282
27.4463
28.353
28.4968
28.2332
27.8744
27.6373
27.5944
27.6275
27.3889
26.2755
23.4238
17.7373
7.95958
-7.19834
-28.8742
-57.8239
-94.1712
-137.176
-185.073
-235.03
-283.262
-325.321
-356.536
-372.573
-370.018
-346.92
-303.189
-240.783
-163.641
-77.3609
11.3554
95.4087
168.08
223.774
258.626
270.904
261.152
232.062
188.098
134.929
78.7469
25.5582
-19.4646
-52.4932
-71.366
-75.6947
-66.7566
-47.2031
-20.6307
8.92006
37.4753
61.5825
78.6625
87.2232
86.924
78.4955
63.5386
44.2395
23.0422
2.32308
-15.8929
-30.145
-39.6592
-44.3747
-44.8822
-42.2885
-38.0335
-33.6845
-30.7355
-30.4348
-33.6574
-40.8332
-51.9338
-66.5124
-83.7868
-102.752
-122.307
-141.376
-159.013
-174.486
-187.317
-197.296
-204.455
-209.023
-211.353
-211.854
-210.912
-208.835
-205.807
-201.876
-196.956
-190.856
-183.326
-174.108
-163.001
-149.905
-134.862
-118.086
-99.9561
-81.0002
-61.8578
-43.2246
-25.7911
-10.1783
3.11814
13.7728
21.6559
26.839
29.5792
30.2855
29.4707
27.6962
25.5145
23.4176
21.7956
20.9101
20.8834
21.7044
23.248
25.3053
27.6196
29.923
31.9703
33.5654
34.5788
34.9542
34.7064
33.9097
32.682
31.1644
29.5024
27.828
26.2472
24.8316
23.6165
22.6028
21.763
21.0495
20.4039
19.7651
19.0768
18.2922
17.377
16.3098
15.081
13.6909
12.1466
10.4601
8.64557
6.7184
4.69467
2.59122
0.426099
-1.7811
-4.00932
-6.23686
-8.4428
-10.6091
-12.7227
-14.7775
-16.7758
-18.7283
-20.6545
-22.5809
-24.54
-26.5689
-28.7068
-30.9939
-33.4678
-36.1607
-39.0936
-42.2706
-45.6705
-49.2393
-52.8831
-56.4632
-59.7966
-62.661
-64.8084
-65.9841
-65.9517
-64.5204
-61.5719
-57.0819
-51.1337
-43.92
-35.733
-26.942
-17.962
-9.21491
-1.0901
6.09332
12.1168
16.8825
20.4205
22.8824
24.5208
25.6562
26.632
27.7614
29.2672
31.2189
33.4724
35.6167
36.9385
36.4154
32.7511
24.4642
10.0395
-11.8594
-42.131
-80.9614
-127.576
-180.077
-235.402
-289.466
-337.475
-374.4
-395.57
-397.29
-377.405
-335.715
-274.164
-196.773
-109.301
-18.6675
67.7753
143.048
201.309
238.483
252.674
244.321
216.066
172.377
118.975
62.1409
7.99589
-38.1542
-72.3396
-92.2549
-97.371
-88.8335
-69.1752
-41.8943
-10.9597
19.6917
46.6035
67.1458
79.7273
83.8607
80.0879
69.7899
54.9143
37.6647
20.1929
4.33166
-8.60143
-17.9141
-23.5576
-26.0607
-26.3975
-25.8121
-25.6273
-27.0635
-31.0881
-38.3127
-48.9441
-62.7897
-79.3106
-97.7103
-117.043
-136.33
-154.66
-171.278
-185.637
-197.428
-206.567
-213.171
-217.501
-219.905
-220.751
-220.367
-219.002
-216.788
-213.74
-209.759
-204.663
-198.223
-190.211
-180.444
-168.824
-155.373
-140.244
-123.726
-106.233
-88.2722
-70.4074
-53.2153
-37.2372
-22.9346
-10.6527
-0.594507
7.19168
12.8093
16.4969
18.6
19.5335
19.7401
19.6486
19.6368
20.0007
20.9352
22.524
24.7425
27.4689
30.505
33.6016
36.4881
38.9008
40.6103
41.4425
41.2935
40.1368
38.0215
35.0649
31.4376
27.3461
23.013
18.6582
14.4825
10.6542
7.30108
4.50653
2.31006
0.711402
-0.322747
-0.85052
-0.946184
-0.69199
-0.171373
0.535861
1.35597
2.22125
3.0678
3.83167
4.44442
4.82907
4.89791
4.55296
3.68983
2.20494
0.00553834
-2.97885
-6.78506
-11.4069
-16.789
-22.8262
-29.3665
-36.221
-43.1763
-50.0097
-56.5056
-62.4688
-67.7354
-72.178
-75.7067
-78.2645
-79.8201
-80.3594
-79.8771
-78.3711
-75.8409
-72.2898
-67.7311
-62.1968
-55.7471
-48.478
-40.5259
-32.0675
-23.3133
-14.497
-5.86003
2.36646
9.97904
16.8178
22.7779
27.8146
31.9427
35.2273
37.768
39.6743
41.0337
41.8701
42.0957
41.4589
39.4948
35.4912
28.485
17.3057
0.682514
-22.5811
-53.3708
-91.9898
-137.895
-189.498
-244.082
-297.885
-346.373
-384.677
-408.161
-413.042
-396.959
-359.41
-301.975
-228.278
-143.684
-54.7557
31.443
108.125
169.524
211.509
231.993
231.097
211.04
175.791
130.538
81.0392
32.9525
-8.78393
-40.4389
-59.8003
-66.2842
-60.8455
-45.7148
-24.0105
0.718604
24.9574
45.6392
60.4647
68.0964
68.2165
61.4536
49.2015
33.362
16.0508
-0.692365
-15.1553
-26.1376
-33.053
-35.9435
-35.4133
-32.4988
-28.496
-24.7714
-22.5819
-22.9235
-26.4256
-33.3001
-43.3443
-55.9954
-70.4229
-85.6457
-100.657
-114.541
-126.571
-136.27
-143.442
-148.163
-150.733
-151.618
-151.359
-150.489
-149.454
-148.551
-147.89
-147.383
-146.762
-145.622
-143.482
-139.855
-134.322
-126.596
-116.572
-104.352
-90.2505
-74.7713
-58.5611
-42.3502
-26.8808
-12.8358
-0.774139
8.91874
16.0608
20.6808
23.0025
23.41
22.3967
20.5071
18.2759
16.1741
14.5649
13.6769
13.5936
14.2616
15.5141
17.1049
18.7506
20.1716
21.1306
21.4609
21.0832
20.0102
18.3378
16.2265
13.8758
11.4959
9.27965
7.38056
5.89679
4.86476
4.26124
4.0134
4.01429
4.14143
4.27543
4.31608
4.19394
3.87613
3.36607
2.69792
1.92677
1.11663
0.328022
-0.393129
-1.0239
-1.56936
-2.06409
-2.57036
-3.17393
-3.97779
-5.09485
-6.63977
-8.72053
-11.4299
-14.8373
-18.981
-23.8623
-29.4398
-35.6274
-42.2926
-49.2592
-56.3103
-63.1965
-69.6444
-75.3693
-80.0895
-83.5424
-85.5011
-85.7914
-84.3072
-81.0227
-76.0011
-69.3973
-61.4541
-52.4906
-42.8842
-33.0459
-23.3907
-14.3067
-6.12499
0.906811
6.64382
11.0547
14.2221
16.3329
17.6575
18.5195
19.2561
20.1701
21.4753
23.237
25.3117
27.2919
28.4662
27.8057
23.9919
15.5007
0.750085
-21.686
-52.8127
-92.9281
-141.36
-196.283
-254.667
-312.394
-364.57
-406.001
-431.788
-437.961
-422.063
-383.582
-324.174
-247.603
-159.429
-66.4476
24.0269
104.958
170.344
215.855
239.252
240.559
221.964
187.469
142.356
92.527
43.8181
1.36286
-30.9174
-50.6458
-57.1173
-51.2229
-35.1945
-12.2167
14.0372
39.8829
62.0585
78.0652
86.3838
86.5532
79.1136
65.4356
47.4668
27.4339
7.54256
-10.291
-24.6447
-34.7144
-40.3506
-42.0113
-40.6454
-37.5285
-34.0748
-31.6499
-31.4079
-34.1683
-40.345
-49.9298
-62.527
-77.4306
-93.7297
-110.427
-126.553
-141.27
-153.941
-164.171
-171.82
-176.968
-179.873
-180.904
-180.464
-178.926
-176.578
-173.591
-170.001
-165.726
-160.591
-154.373
-146.85
-137.846
-127.279
-115.184
-101.732
-87.2295
-72.0986
-56.8468
-42.0256
-28.1827
-15.8143
-5.3218
3.0221
9.09428
12.9275
14.7012
14.7194
13.3764
11.1175
8.39553
5.63142
3.17978
1.30464
0.166219
-0.180521
0.223559
1.26011
2.75769
4.51893
6.34731
8.07043
9.55745
10.7291
11.5595
12.0702
12.318
12.3781
12.3253
12.2179
12.0842
11.916
11.6698
11.2748
10.6481
9.7128
8.41752
6.75277
4.76191
2.54413
0.248592
-1.93967
-3.82047
-5.20277
-5.92939
-5.89855
-5.07928
-3.51866
-1.33989
1.26857
4.07121
6.80889
9.22428
11.0864
12.2114
12.4772
11.8303
10.2855
7.91758
4.84731
1.22383
-2.79416
-7.05562
-11.4306
-15.8177
-20.1452
-24.3648
-28.4403
-32.3323
-35.9818
-39.2957
-42.1378
-44.3262
-45.6412
-45.8408
-44.6849
-41.9649
-37.5346
-31.3381
-23.4315
-13.9924
-3.31755
8.19417
20.071
31.8074
42.9078
52.931
61.5284
68.4725
73.6718
77.1707
79.1345
79.8209
79.5402
78.6073
77.2873
75.7353
73.935
71.6371
68.3068
63.0905
54.8178
42.0559
23.2331
-3.1636
-38.3231
-82.8039
-136.232
-197.061
-262.462
-328.38
-389.802
-441.216
-477.216
-493.189
-485.96
-454.319
-399.329
-324.353
-234.796
-137.573
-40.3802
49.1376
124.221
179.713
212.577
222.151
210.119
180.205
137.652
88.5494
39.106
-5.04483
-39.424
-61.1089
-68.9241
-63.4134
-46.6148
-21.6816
7.59211
37.2757
63.7741
84.213
96.702
100.454
95.7625
83.8549
66.6487
46.4529
25.6541
6.4256
-9.50708
-21.024
-27.6799
-29.6865
-27.8179
-23.2599
-17.4241
-11.7553
-7.55234
-5.8255
-7.20053
-11.8779
-19.6459
-29.94
-41.9379
-54.6749
-67.1641
-78.5071
-87.983
-95.1088
-99.6646
-101.688
-101.436
-99.3279
-95.875
-91.6012
-86.9739
-82.3446
-77.9079
-73.6829
-69.5173
-65.114
-60.0759
-53.964
-46.3629
-36.9435
-25.5189
-12.0842
3.16422
19.8307
37.346
55.0109
72.0549
87.7007
101.229
112.035
119.673
123.883
124.599
121.939
116.187
107.755
97.1433
84.9057
71.6073
57.7945
43.9697
30.573
17.9711
6.45146
-3.77876
-12.5901
-19.9252
-25.7908
-30.2472
-33.3954
-35.363
-36.2893
-36.3111
-35.5508
-34.108
-32.056
-29.4435
-26.3014
-22.6536
-18.5297
-13.9774
-9.07289
-3.92587
1.32057
6.49659
11.4174
15.8991
19.7754
22.9142
25.2305
26.6945
27.3332
27.2264
26.4968
25.2956
23.7863
22.1277
20.4592
18.8889
17.4865
16.2816
15.2659
14.3997
13.6201
12.8512
12.0126
11.0277
9.82847
8.35894
6.57583
4.44761
1.9524
-0.924378
-4.19202
-7.85563
-11.9159
-16.3674
-21.1956
-26.373
-31.8538
-37.5694
-43.4243
-49.293
-55.0196
-60.4206
-65.2907
-69.4133
-72.5738
-74.5764
-75.2609
-74.5206
-72.3165
-68.6876
-63.7547
-57.7174
-50.8433
-43.4502
-35.8828
-28.4858
-21.5766
-15.419
-10.2031
-6.03017
-2.90729
-0.750595
0.601663
1.36595
1.78033
2.06148
2.35259
2.66438
2.81349
2.36594
0.597196
-3.51637
-11.2579
-24.0683
-43.3736
-70.3485
-105.635
-149.059
-199.389
-254.211
-309.949
-362.081
-405.533
-435.232
-446.737
-436.871
-404.243
-349.579
-275.811
-187.872
-92.2355
3.75034
92.6551
167.773
223.841
257.58
267.99
256.369
226.067
182.01
130.073
76.3765
26.5997
-14.6023
-44.0222
-60.1222
-63.0423
-54.4129
-37.0104
-14.3101
9.99883
32.4757
50.3134
61.6071
65.4844
62.0959
52.4795
38.3292
21.7057
4.73029
-10.6964
-23.1195
-31.6747
-36.1428
-36.9161
-34.8876
-31.2875
-27.4891
-24.8145
-24.3624
-26.88
-32.6888
-41.671
-53.3112
-66.785
-81.0778
-95.1176
-107.904
-118.617
-126.697
-131.881
-134.206
-133.973
-131.681
-127.945
-123.406
-118.65
-114.132
-110.138
-106.754
-103.881
-101.257
-98.5087
-95.2135
-90.9638
-85.4305
-78.4151
-69.8852
-59.9888
-49.0459
-37.5182
-25.9605
-14.9604
-5.07318
3.23984
9.66099
14.0489
16.4493
17.0844
16.3206
14.6221
12.4938
10.4229
8.82602
8.00671
8.13008
9.21478
11.143
13.686
16.5407
19.3724
21.858
23.7244
24.7778
24.9219
24.1622
22.599
20.4089
17.8195
15.0792
12.4278
10.0698
8.15391
6.7612
5.90177
5.52049
5.51001
5.72925
6.02443
6.25016
6.28761
6.05789
5.52916
4.71694
3.67815
2.50002
1.28566
0.138547
-0.852142
-1.62326
-2.14528
-2.42499
-2.50325
-2.44852
-2.34745
-2.294
-2.37916
-2.68273
-3.26865
-4.18447
-5.46464
-7.13664
-9.2279
-11.7717
-14.81
-18.3915
-22.5653
-27.3698
-32.8191
-38.8886
-45.5024
-52.5244
-59.7553
-66.9356
-73.7559
-79.8726
-84.9283
-88.5762
-90.505
-90.4645
-88.2883
-83.9129
-77.3903
-68.8928
-58.709
-47.2297
-34.9248
-22.3118
-9.91988
1.74896
12.2568
21.2611
28.5372
33.9896
37.6511
39.6696
40.2833
39.7867
38.4887
36.6652
34.5072
32.0672
29.2074
25.5548
20.4736
13.0664
2.2187
-13.3008
-34.6778
-62.8333
-98.1688
-140.312
-187.912
-238.542
-288.74
-334.24
-370.352
-392.5
-396.804
-380.667
-343.238
-285.692
-211.269
-125.043
-33.4492
56.3808
137.385
203.343
249.555
273.332
274.244
254.098
216.659
167.146
111.594
56.1427
6.36209
-33.3158
-59.9956
-72.5092
-71.3917
-58.6609
-37.4427
-11.4996
15.2721
39.3143
57.7923
68.8555
71.7536
66.8062
55.2457
38.963
20.1977
1.21697
-15.9765
-29.8733
-39.5999
-44.9671
-46.4256
-44.9442
-41.8349
-38.5495
-36.4798
-36.7824
-40.2502
-47.2407
-57.664
-71.027
-86.5216
-103.142
-119.815
-135.524
-149.416
-160.876
-169.566
-175.432
-178.669
-179.662
-178.92
-176.986
-174.363
-171.453
-168.502
-165.583
-162.597
-159.289
-155.296
-150.202
-143.598
-135.147
-124.64
-112.037
-97.4902
-81.3396
-64.0937
-46.384
-28.9075
-12.3607
2.62587
15.5453
26.0576
34.0141
39.4611
42.6227
43.8672
43.6603
42.5119
40.9223
39.3348
38.0975
37.4397
37.4618
38.141
39.3492
40.8791
42.4781
43.881
44.8429
45.1651
44.7142
43.4318
41.3364
38.5158
35.114
31.3129
27.312
23.3079
19.4764
15.9579
12.848
10.193
7.9919
6.2017
4.74733
3.53346
2.45725
1.42055
0.340141
-0.844763
-2.16862
-3.63932
-5.24161
-6.94342
-8.70436
-10.485
-12.2558
-14.0041
-15.7386
-17.4902
-19.3101
-21.2645
-23.4273
-25.8722
-28.6632
-31.8474
-35.4478
-39.4576
-43.8367
-48.5091
-53.3624
-58.2475
-62.9807
-67.3468
-71.1048
-73.9968
-75.7607
-76.148
-74.9444
-71.9941
-67.2228
-60.6583
-52.4435
-42.8392
-32.2148
-21.0267
-9.78393
0.992741
10.8172
19.2818
26.0955
31.1096
34.3298
35.9115
36.1398
35.3944
34.1036
32.689
31.5047
30.7737
30.526
30.541
30.3044
28.9876
25.4619
18.3639
6.21996
-12.3644
-38.4599
-72.5388
-114.211
-162.023
-213.373
-264.59
-311.189
-348.305
-371.251
-376.133
-360.429
-323.444
-266.558
-193.21
-108.629
-19.307
67.6864
145.491
208.215
251.58
273.371
273.62
254.533
220.147
175.796
127.436
80.9341
41.4064
12.6806
-3.05505
-5.38554
4.41831
23.6823
48.7594
75.5457
100.011
118.682
129.014
129.624
120.363
102.225
77.1343
47.6308
16.5097
-13.5361
-40.2301
-61.9462
-77.8433
-87.8911
-92.7966
-93.8466
-92.6955
-91.1267
-90.8195
-93.1481
-99.034
-108.865
-122.481
-139.236
-158.094
-177.787
-196.964
-214.361
-228.924
-239.921
-246.987
-250.138
-249.729
-246.379
-240.873
-234.049
-226.69
-219.428
-212.682
-206.615
-201.14
-195.946
-190.555
-184.402
-176.915
-167.601
-156.119
-142.334
-126.35
-108.513
-89.3862
-69.7061
-50.3099
-32.0578
-15.7488
-2.04356
8.59825
15.9592
20.0792
21.2436
19.9457
16.829
12.6166
8.03487
3.74218
0.268538
-2.02629
-2.97328
-2.59198
-1.06763
1.28835
4.08866
6.92435
9.4165
11.2592
12.2501
12.3051
11.4585
9.84888
7.69471
5.26287
2.83536
0.677473
-0.988969
-2.00507
-2.28587
-1.82279
-0.678256
1.026
3.1251
5.42961
7.74456
9.88696
11.7006
13.0668
13.9108
14.2035
13.9589
13.2283
12.0912
10.6454
8.99561
7.24345
5.47794
3.76832
2.15907
0.667564
-0.715751
-2.02503
-3.31494
-4.6556
-6.12693
-7.81301
-9.79632
-12.1519
-14.9409
-18.2033
-21.9498
-26.1537
-30.7421
-35.5904
-40.5189
-45.2951
-49.6414
-53.2504
-55.8054
-57.0072
-56.603
-54.4157
-50.3691
-44.5057
-36.9941
-28.124
-18.2883
-7.95289
2.38203
12.2259
21.1419
28.7853
34.9331
39.4993
42.5361
44.2197
44.8221
44.6724
44.1112
43.4405
42.873
42.4828
42.1602
41.5725
40.1368
37.0115
31.1173
21.199
5.93874
-15.8746
-45.1274
-82.1356
-126.408
-176.465
-229.766
-282.779
-331.222
-370.458
-396.014
-404.145
-392.376
-359.928
-307.951
-239.533
-159.462
-73.7629
10.9216
88.0446
151.854
198
223.966
229.283
215.5
185.92
145.155
98.5472
51.5463
9.11024
-24.7951
-47.5472
-58.0371
-56.6516
-45.0858
-26.0204
-2.71421
21.432
43.2861
60.323
70.8562
74.146
70.3817
60.5537
46.241
29.3492
11.8355
-4.54317
-18.4303
-28.9992
-36.0011
-39.7362
-40.9569
-40.7245
-40.2405
-40.677
-43.0264
-47.9888
-55.9041
-66.7349
-80.0959
-95.3214
-111.559
-127.877
-143.369
-157.248
-168.918
-178.011
-184.407
-188.21
-189.711
-189.329
-187.544
-184.822
-181.558
-178.025
-174.342
-170.468
-166.219
-161.299
-155.352
-148.024
-139.023
-128.172
-115.456
-101.043
-85.2852
-68.6987
-51.9187
-35.6412
-20.5543
-7.26891
3.74317
12.1952
18.0111
21.3269
22.4696
21.9141
20.2275
18.0046
15.8044
14.0946
13.2096
13.3267
14.4617
16.4837
19.1446
22.1211
25.0605
27.627
29.5418
30.6125
30.7501
29.9719
28.3916
26.1984
23.6297
20.9397
18.3699
16.1228
14.344
13.1114
12.4343
12.2603
12.4889
12.9891
13.6189
14.2432
14.7496
15.0584
15.1275
14.9515
14.5556
13.986
13.2981
12.5449
11.7662
10.9816
10.1867
9.3538
8.43628
7.37598
6.11261
4.59343
2.78208
0.66529
-1.74328
-4.40259
-7.24699
-10.192
-13.142
-16.0002
-18.678
-21.1051
-23.2376
-25.0657
-26.6169
-27.9585
-29.1948
-30.4624
-31.9205
-33.7393
-36.0844
-39.1001
-42.8914
-47.5073
-52.9266
-59.0484
-65.6886
-72.5843
-79.4057
-85.7763
-91.2989
-95.5857
-98.2898
-99.135
-97.94
-94.6352
-89.2708
-82.0143
-73.1384
-63.0005
-52.0162
-40.6283
-29.2755
-18.3621
-8.23243
0.849308
8.71133
15.279
20.5717
24.6926
27.8126
30.1481
31.9344
33.3935
34.696
35.9178
36.9911
37.6545
37.4082
35.4845
30.848
22.2417
8.29025
-12.331
-40.6688
-77.2277
-121.707
-172.79
-228.034
-283.921
-336.067
-379.624
-409.791
-422.419
-414.583
-385.06
-334.618
-266.077
-184.106
-94.7841
-4.97925
78.3838
149.064
202.164
234.619
245.466
235.863
208.861
168.97
121.588
72.3561
26.5334
-11.5372
-38.8195
-53.7892
-56.4474
-48.1575
-31.3391
-9.07143
15.3388
38.7682
58.6198
73.0626
81.1513
82.8226
78.7846
70.3223
59.0561
46.6852
34.7535
24.4622
16.5492
11.2441
8.29401
7.05156
6.60608
5.93623
4.06226
0.177663
-6.25509
-15.4539
-27.3137
-41.4453
-57.248
-74.0004
-90.9566
-107.433
-122.873
-136.892
-149.283
-160.002
-169.135
-176.841
-183.304
-188.679
-193.055
-196.436
-198.73
-199.764
-199.31
-197.112
-192.926
-186.556
-177.883
-166.889
-153.672
-138.453
-121.569
-103.461
-84.6525
-65.7215
-47.2681
-29.8794
-14.0951
-0.375641
10.9244
19.5763
25.488
28.7055
29.4045
27.8734
24.4882
19.6832
13.9182
7.64726
1.28966
-4.79292
-10.3124
-15.0626
-18.9191
-21.8335
-23.8212
-24.9461
-25.3045
-25.0086
-24.1733
-22.9051
-21.2959
-19.4197
-17.3329
-15.0766
-12.6802
-10.1652
-7.54903
-4.84732
-2.07584
0.748928
3.60986
6.48974
9.37198
12.2413
15.084
17.8879
20.642
23.3349
25.9544
28.4856
30.9102
33.2061
35.3475
37.3058
39.0518
40.5581
41.8021
42.7694
43.4564
43.8717
44.0366
43.9832
43.7517
43.3852
42.9248
42.4038
41.8435
41.2494
40.611
39.9023
39.0858
38.1179
36.9554
35.562
33.9138
32.003
29.8381
27.4406
24.8383
22.0549
19.0993
15.9542
12.5687
8.85569
4.69577
-0.05068
-5.52527
-11.8485
-19.0945
-27.2683
-36.287
-45.9701
-56.0399
-66.132
-75.817
-84.6298
-92.1054
-97.8157
-101.406
-102.628
-101.36
-97.6218
-91.5802
-83.5338
-73.894
-63.1529
-51.8442
-40.5009
-29.6138
-19.5943
-10.7461
-3.24875
2.84659
7.60726
11.1976
13.8477
15.8152
17.3433
18.6162
19.7151
20.5731
20.9337
20.3143
17.9849
12.9709
4.09525
-9.92585
-30.3279
-58.0846
-93.6547
-136.725
-185.997
-239.075
-292.495
-341.94
-382.62
-409.804
-419.417
-408.639
-376.386
-323.609
-253.343
-170.484
-81.3163
7.14936
87.95
154.94
203.465
230.841
236.594
222.423
191.908
150.012
102.438
54.9486
12.7123
-20.227
-41.31
-49.6175
-45.8189
-31.9359
-10.9679
13.5642
38.0926
59.4353
75.1385
83.6955
84.6271
78.4288
66.4025
50.4079
32.5696
14.982
-0.551629
-12.7183
-20.8137
-24.7735
-25.1228
-22.8568
-19.2749
-15.791
-13.7471
-14.2493
-18.0476
-25.4667
-36.3948
-50.3241
-66.4363
-83.7166
-101.081
-117.503
-132.114
-144.29
-153.682
-160.23
-164.128
-165.765
-165.653
-164.346
-162.356
-160.094
-157.822
-155.633
-153.452
-151.063
-148.147
-144.331
-139.239
-132.545
-124.01
-113.509
-101.052
-86.7806
-70.964
-53.9762
-36.2716
-18.3541
-0.744329
16.0532
31.5799
45.4491
57.3659
67.1395
74.6885
80.0369
83.3034
84.6844
84.4333
82.8371
80.1943
76.7949
72.9044
68.7528
64.5283
60.376
56.4
52.6685
49.2196
46.0677
43.2098
40.6299
38.3027
36.1965
34.2739
32.4936
30.8097
29.1734
27.5326
25.8344
24.027
22.0634
19.9066
17.5341
14.9434
12.1557
9.21766
6.20049
3.19569
0.308092
-2.35348
-4.68666
-6.60574
-8.05042
-8.99172
-9.43454
-9.41635
-9.00248
-8.27852
-7.34105
-6.28781
-5.20871
-4.17858
-3.25256
-2.46445
-1.82784
-1.33975
-0.985854
-0.746354
-0.601693
-0.537179
-0.546043
-0.630665
-0.802084
-1.07814
-1.48085
-2.03368
-2.75946
-3.67926
-4.81261
-6.17863
-7.79759
-9.69214
-11.8873
-14.4084
-17.2774
-20.5065
-24.0901
-27.9966
-32.1591
-36.4683
-40.7673
-44.85
-48.4641
-51.3207
-53.1093
-53.5206
-52.2737
-49.1464
-44.0064
-36.8367
-27.7547
-17.018
-5.017
7.74679
20.6962
33.2232
44.7399
54.7288
62.7877
68.6644
72.2749
73.7055
73.1954
71.1016
67.8481
63.8628
59.5049
54.9888
50.3106
45.1863
39.0121
30.8625
19.5385
3.68013
-18.0552
-46.7545
-82.9752
-126.476
-176
-229.174
-282.546
-331.822
-372.253
-399.17
-408.585
-397.763
-365.699
-313.396
-243.901
-162.084
-74.1689
12.915
92.2872
157.869
205.04
231.118
235.597
220.124
188.227
144.835
95.6597
46.5217
2.70262
-31.5956
-53.6292
-62.2958
-58.1126
-43.0102
-19.9798
7.37079
35.2922
60.3405
79.7436
91.6533
95.2605
90.7762
79.2915
62.5477
42.6529
21.7858
1.92382
-15.3727
-29.1004
-38.868
-44.8687
-47.7831
-48.6328
-48.6073
-48.891
-50.5087
-54.2101
-60.4003
-69.1216
-80.0823
-92.7237
-106.313
-120.048
-133.156
-144.984
-155.058
-163.118
-169.119
-173.214
-175.699
-176.963
-177.42
-177.448
-177.335
-177.241
-177.176
-176.999
-176.429
-175.079
-172.498
-168.224
-161.839
-153.028
-141.624
-127.643
-111.3
-93.0079
-73.3526
-53.0511
-32.8953
-13.6867
3.82971
19.0264
31.443
40.8193
47.1086
50.471
51.248
49.9214
47.0622
43.2738
39.1372
35.162
31.7498
29.1701
27.5532
26.8966
27.0854
27.9215
29.1583
30.5361
31.8153
32.8018
33.3645
33.4418
33.0391
32.2177
31.077
29.7344
28.3046
26.8818
25.5269
24.2604
23.0627
21.8795
20.6331
19.2363
17.607
15.6827
13.4316
10.8596
8.01308
4.97577
1.86205
-1.19383
-4.05031
-6.57182
-8.64108
-10.1695
-11.1045
-11.4337
-11.1863
-10.4306
-9.27083
-7.84163
-6.3021
-4.8296
-3.61312
-2.84585
-2.71651
-3.39888
-5.03955
-7.74463
-11.5665
-16.4929
-22.4394
-29.2488
-36.6968
-44.5052
-52.3621
-59.9457
-66.9501
-73.1092
-78.2159
-82.1339
-84.8003
-86.2196
-86.4489
-85.5788
-83.7115
-80.9411
-77.3402
-72.9538
-67.8027
-61.8955
-55.2458
-47.8924
-39.9169
-31.4559
-22.7039
-13.9058
-5.34005
2.7072
9.97095
16.237
21.3671
25.3157
28.1367
29.9773
31.0608
31.6579
32.0486
32.4764
33.0969
33.9226
34.7668
35.1938
34.4827
31.6186
25.3273
14.1667
-3.31257
-28.3431
-61.6676
-103.256
-152.06
-205.869
-261.312
-314.042
-359.114
-391.507
-406.753
-401.56
-374.349
-325.609
-258.001
-176.194
-86.4223
4.15584
88.2416
159.2
211.787
242.704
250.913
237.676
206.322
161.784
109.973
57.0673
8.81765
-30.0567
-56.31
-68.4099
-66.5617
-52.5298
-29.2948
-0.599323
29.5529
57.3816
79.743
94.4284
100.324
97.4248
86.7205
69.9692
49.4072
27.4283
6.2775
-12.2074
-26.7784
-36.8703
-42.5999
-44.6812
-44.2737
-42.7895
-41.6855
-42.2684
-45.5359
-52.0698
-61.9922
-74.983
-90.3537
-107.162
-124.349
-140.88
-155.87
-168.673
-178.941
-186.625
-191.946
-195.325
-197.295
-198.402
-199.119
-199.764
-200.465
-201.134
-201.495
-201.119
-199.494
-196.091
-190.447
-182.221
-171.249
-157.571
-141.437
-123.295
-103.752
-83.5264
-63.3896
-44.1008
-26.3484
-10.6989
2.44151
12.8491
20.4867
25.4924
28.1529
28.8659
28.0968
26.3328
24.0396
21.6258
19.4159
17.6348
16.4043
15.7499
15.6161
15.8888
16.4191
17.0477
17.627
18.0372
18.197
18.068
17.6523
16.986
16.1285
15.1513
14.1261
13.1146
12.1624
11.2948
10.5171
9.81771
9.17279
8.55268
7.92772
7.27334
6.57356
5.82275
5.02562
4.19574
3.35329
2.52221
1.72758
0.993225
0.340059
-0.215095
-0.66011
-0.987844
-1.19626
-1.28849
-1.27297
-1.16345
-0.979009
-0.743728
-0.485986
-0.237278
-0.0304906
0.102258
0.132033
0.0354704
-0.203182
-0.59071
-1.12452
-1.79332
-2.57901
-3.45957
-4.41284
-5.42079
-6.47371
-7.57397
-8.73867
-10.001
-11.41
-13.0287
-14.9303
-17.1938
-19.8967
-23.1074
-26.876
-31.2249
-36.139
-41.5577
-47.3686
-53.4051
-59.4476
-65.2315
-70.4592
-74.8181
-78.0022
-79.7363
-79.7992
-78.0444
-74.4164
-68.9588
-61.8153
-53.2224
-43.4941
-33.0008
-22.1434
-11.3258
-0.927994
8.71844
17.3499
24.7839
30.925
35.7633
39.3657
41.8613
43.4212
44.2338
44.4768
44.2831
43.7029
42.6601
40.9068
37.9816
33.1824
25.5692
14.0129
-2.69516
-25.6685
-55.6928
-92.9632
-136.834
-185.633
-236.603
-285.999
-329.376
-362.03
-379.562
-378.483
-356.758
-314.214
-252.733
-176.182
-90.0907
-1.09619
83.7611
157.807
215.463
252.843
268.142
261.771
236.227
195.735
145.693
92.0196
40.4794
-3.93763
-37.5
-58.0401
-65.0559
-59.6113
-44.0644
-21.6689
3.89246
28.9804
50.4208
65.83
73.8134
74.0248
67.0945
54.4452
38.0301
20.0324
2.5654
-12.5892
-24.1769
-31.5822
-34.8506
-34.6266
-32.0222
-28.4385
-25.367
-24.1948
-26.0384
-31.6234
-41.2196
-54.636
-71.27
-90.2002
-110.309
-130.414
-149.403
-166.337
-180.535
-191.615
-199.497
-204.38
-206.674
-206.93
-205.75
-203.708
-201.273
-198.759
-196.296
-193.822
-191.104
-187.777
-183.395
-177.5
-169.68
-159.633
-147.22
-132.491
-115.703
-97.3077
-77.9207
-58.2703
-39.1331
-21.2641
-5.32758
8.16208
18.8832
26.7282
31.8023
34.3988
34.9566
34.0035
32.0951
29.755
27.4242
25.4253
23.9445
23.0319
22.6186
22.5469
22.6083
22.5828
22.2763
21.5481
20.3296
18.6292
16.5267
14.1574
11.6903
9.30266
7.1564
5.3776
4.04288
3.17322
2.73533
2.6499
2.8047
3.07043
3.31702
3.4282
3.31269
2.91118
2.1987
1.18293
-0.100676
-1.59576
-3.23254
-4.93485
-6.62585
-8.23194
-9.68492
-10.9226
-11.8882
-12.5303
-12.8016
-12.6594
-12.0676
-10.9983
-9.43672
-7.38553
-4.87077
-1.94733
1.29637
4.7355
8.20876
11.5219
14.4557
16.7774
18.2571
18.6859
17.8949
15.7737
12.285
7.47433
1.47205
-5.511
-13.1961
-21.2549
-29.3325
-37.0723
-44.1398
-50.2444
-55.1546
-58.7078
-60.8129
-61.4465
-60.6436
-58.486
-55.0883
-50.5865
-45.1286
-38.8685
-31.9649
-24.5818
-16.8909
-9.07293
-1.31728
6.18226
13.2354
19.6667
25.3288
30.1159
33.9759
36.9184
39.0176
40.4095
41.2814
41.8544
42.3578
42.9952
43.9022
45.0964
46.423
47.502
47.6856
46.0413
41.3743
32.3052
17.412
-4.56338
-34.4607
-72.4299
-117.688
-168.361
-221.454
-272.992
-318.339
-352.672
-371.554
-371.538
-350.697
-309.014
-248.537
-173.289
-88.9074
-2.07682
80.1936
151.341
205.969
240.43
253.189
244.924
218.374
177.945
129.134
77.8657
29.8045
-10.252
-38.8449
-54.1353
-55.9766
-45.7848
-26.2365
-0.84482
26.5264
52.1476
72.8494
86.3436
91.4106
87.9422
76.8471
59.844
39.1757
17.2873
-3.49193
-21.223
-34.5603
-42.8653
-46.2238
-45.3746
-41.5648
-36.3557
-31.4069
-28.2664
-28.1919
-32.0206
-40.1011
-52.2883
-67.9971
-86.3024
-106.069
-126.095
-145.244
-162.559
-177.343
-189.195
-198.007
-203.934
-207.319
-208.62
-208.322
-206.855
-204.541
-201.551
-197.895
-193.437
-187.929
-181.064
-172.53
-162.074
-149.55
-134.958
-118.472
-100.437
-81.3564
-61.8583
-42.6481
-24.451
-7.95163
6.26388
17.7566
26.27
31.7476
34.3313
34.3405
32.2351
28.5661
23.9207
18.8658
13.8993
9.41125
5.66004
2.76523
0.715752
-0.608116
-1.4028
-1.90421
-2.34989
-2.94522
-3.83715
-5.09804
-6.72063
-8.6238
-10.6675
-12.6742
-14.4541
-15.8298
-16.6585
-16.8483
-16.3675
-15.2459
-13.5682
-11.4618
-9.08016
-6.5834
-4.12068
-1.81444
0.250756
2.03401
3.53838
4.80607
5.90978
6.94146
8.00017
9.18055
10.563
12.2063
14.1436
16.3808
18.8985
21.6547
24.5906
27.6358
30.7143
33.7496
36.6685
39.4042
41.8966
44.0923
45.9418
47.3974
48.4088
48.9208
48.8714
48.1928
46.815
44.673
41.7167
37.9216
33.2998
27.9084
21.854
15.2906
8.41265
1.44117
-5.39414
-11.8751
-17.8151
-23.0753
-27.576
-31.3002
-34.2888
-36.629
-38.4367
-39.8349
-40.9325
-41.8057
-42.4846
-42.9473
-43.1227
-42.8999
-42.1456
-40.7233
-38.515
-35.4387
-31.4631
-26.6129
-20.9695
-14.6627
-7.85833
-0.742374
6.49545
13.6766
20.6449
27.2736
33.4672
39.1586
44.3026
48.866
52.8144
56.0936
58.6071
60.1843
60.5436
59.2507
55.6823
49.0075
38.2054
22.1354
-0.326635
-30.0875
-67.5883
-112.544
-163.723
-218.822
-274.489
-326.514
-370.202
-400.882
-414.49
-408.148
-380.638
-332.71
-267.137
-188.529
-102.897
-17.0343
62.2171
128.708
177.644
206.082
213.194
200.286
170.561
128.677
80.158
30.7373
-14.281
-50.5692
-75.171
-86.7072
-85.3838
-72.8149
-51.7003
-25.4058
2.4923
28.6417
50.2773
65.4769
73.288
73.7252
67.6502
56.5631
42.3375
26.9401
12.1702
-0.550456
-10.3166
-16.7959
-20.2059
-21.2208
-20.8287
-20.1619
-20.3263
-22.2514
-26.5801
-33.6081
-43.2767
-55.2135
-68.8114
-83.3303
-98.0044
-112.141
-125.196
-136.82
-146.868
-155.382
-162.541
-168.604
-173.84
-178.465
-182.6
-186.243
-189.263
-191.42
-192.401
-191.864
-189.489
-185.027
-178.329
-169.38
-158.295
-145.323
-130.818
-115.218
-99.013
-82.7065
-66.7904
-51.7162
-37.8734
-25.5725
-15.0336
-6.37848
0.371516
5.29325
8.55391
10.3975
11.1262
11.0764
10.5931
10.0019
9.58401
9.55476
10.0488
11.113
12.7088
14.7216
16.9782
19.2692
21.3734
23.0827
24.2237
24.6749
24.3771
23.3373
21.6247
19.3616
16.7088
13.8488
10.9676
8.23807
5.80582
3.77885
2.22197
1.15575
0.559754
0.379289
0.534497
0.93072
1.46887
2.0548
2.60691
3.06147
3.37544
3.52692
3.51359
3.34943
3.0606
2.68073
2.24646
1.79343
1.35309
0.950624
0.603718
0.322431
0.109733
-0.0373471
-0.126252
-0.167298
-0.172144
-0.152477
-0.119057
-0.081243
-0.0471456
-0.0245288
-0.0224933
-0.0538159
-0.137607
-0.301745
-0.584443
-1.03432
-1.70861
-2.66936
-3.97816
-5.69002
-7.84765
-10.4772
-13.5865
-17.1659
-21.1917
-25.6314
-30.4491
-35.6097
-41.081
-46.8321
-52.8292
-59.0279
-65.3635
-71.7419
-78.0311
-84.0561
-89.5984
-94.4012
-98.1803
-100.642
-101.503
-100.52
-97.5108
-92.3835
-85.1561
-75.9696
-65.0915
-52.9069
-39.8979
-26.6115
-13.6189
-1.47033
9.35014
18.4642
25.629
30.7529
33.8952
35.2496
35.1118
33.8334
31.7643
29.1882
26.2528
22.9027
18.8203
13.3883
5.68564
-5.46639
-21.3941
-43.3922
-72.4813
-109.128
-152.971
-202.599
-255.456
-307.907
-355.487
-393.336
-416.767
-421.891
-406.209
-369.071
-311.925
-238.301
-153.519
-64.1618
22.6397
99.9911
162.003
204.428
225.102
224.11
203.702
167.935
122.138
72.2446
24.0949
-17.2027
-47.7867
-65.3722
-69.3734
-60.8173
-42.0773
-16.4721
12.2101
40.198
64.1762
81.6274
91.0464
92.0123
85.1242
71.8213
54.1204
34.3117
14.6524
-2.90332
-16.9102
-26.5548
-31.6891
-32.7811
-30.7957
-27.0287
-22.9176
-19.8546
-19.0235
-21.2768
-27.0633
-36.4097
-48.9516
-64.0067
-80.6767
-97.9633
-114.883
-130.571
-144.355
-155.81
-164.765
-171.296
-175.674
-178.31
-179.68
-180.248
-180.4
-180.39
-180.306
-180.063
-179.413
-177.981
-175.318
-170.966
-164.517
-155.683
-144.339
-130.562
-114.642
-97.0706
-78.5085
-59.7343
-41.5772
-24.8444
-10.2485
1.65633
10.5218
16.2325
18.9089
18.8874
16.6785
12.9108
8.26556
3.40995
-1.06308
-4.68292
-7.13263
-8.26146
-8.07877
-6.7317
-4.47068
-1.60791
1.52569
4.61987
7.41675
9.7318
11.4631
12.5891
13.1569
13.2634
13.0333
12.5964
12.0687
11.5377
11.0544
10.6323
10.252
9.87055
9.4331
8.88583
8.18722
7.31689
6.28074
5.11209
3.86911
2.62895
1.47986
0.512164
-0.190653
-0.55971
-0.546681
-0.12739
0.697042
1.90133
3.43893
5.24614
7.24651
9.35511
11.482
13.5345
15.4193
17.043
18.3135
19.1416
19.4434
19.1442
18.1826
16.5161
14.126
11.0212
7.24112
2.85556
-2.03758
-7.3172
-12.8461
-18.4795
-24.0736
-29.4947
-34.625
-39.3678
-43.6494
-47.4178
-50.6399
-53.2968
-55.3776
-56.8745
-57.7767
-58.0677
-57.723
-56.7117
-55.0002
-52.559
-49.371
-45.4413
-40.8054
-35.536
-29.7455
-23.5839
-17.2315
-10.8873
-4.75305
0.983876
6.16839
10.6933
14.5111
17.6397
20.1613
22.2129
23.9665
25.6003
27.2576
28.9957
30.7263
32.1529
32.7146
31.5511
27.5061
19.1859
5.0882
-16.1971
-45.7265
-83.9114
-130.242
-183.088
-239.621
-295.922
-347.266
-388.585
-415.058
-422.734
-409.115
-373.593
-317.673
-244.93
-160.706
-71.568
15.3898
93.3225
156.376
200.306
222.89
224.097
205.993
172.403
128.398
79.6518
31.7876
-10.2408
-42.6347
-63.0686
-70.8094
-66.6411
-52.6188
-31.697
-7.28845
17.1865
38.7058
54.961
64.553
67.0574
62.963
53.5072
40.4363
25.7299
11.3265
-1.11614
-10.4002
-15.8912
-17.54
-15.8306
-11.6676
-6.22231
-0.763107
3.51006
5.60588
4.84303
0.904634
-6.15558
-15.9509
-27.8335
-40.9888
-54.5383
-67.6385
-79.5651
-89.7741
-97.9362
-103.944
-107.891
-110.035
-110.743
-110.427
-109.492
-108.275
-107.012
-105.814
-104.661
-103.416
-101.851
-99.6866
-96.638
-92.4566
-86.9725
-80.1254
-71.9824
-62.7414
-52.7188
-42.3234
-32.0185
-22.2781
-13.5409
-6.16862
-0.41156
3.61231
5.92476
6.67963
6.14174
4.65516
2.60488
0.376632
-1.68073
-3.28601
-4.24659
-4.46804
-3.95184
-2.78288
-1.10877
0.88555
3.00467
5.06745
6.92701
8.48397
9.69198
10.5558
11.1232
11.4713
11.6923
11.877
12.1021
12.4201
12.8541
13.3969
14.0153
14.6568
15.2586
15.7579
16.1004
16.2474
16.1805
15.9025
15.4359
14.819
14.0998
13.3296
12.5566
11.8201
11.1468
10.5483
10.0211
9.54795
9.10082
8.64454
8.14092
7.55249
6.84551
5.99155
4.9676
3.7546
2.33473
0.688274
-1.20913
-3.38802
-5.8848
-8.73935
-11.991
-15.6735
-19.8094
-24.4055
-29.4492
-34.9059
-40.7189
-46.8096
-53.0793
-59.4108
-65.6702
-71.708
-77.3602
-82.4486
-86.7839
-90.1697
-92.4116
-93.3285
-92.7688
-90.6275
-86.8629
-81.5103
-74.69
-66.6072
-57.5425
-47.8352
-37.8573
-27.9843
-18.5632
-9.88355
-2.15328
4.51663
10.1168
14.7321
18.5225
21.6914
24.444
26.9362
29.2165
31.1652
32.4365
32.4138
30.191
24.5956
14.2691
-2.18508
-25.9876
-57.9167
-98.0254
-145.389
-197.941
-252.454
-304.69
-349.748
-382.57
-398.544
-394.144
-367.48
-318.697
-250.128
-166.188
-72.9831
22.2942
112.133
189.519
248.698
285.787
299.162
289.569
259.956
215.062
160.81
103.595
49.5642
3.95763
-29.3927
-48.3705
-52.6608
-43.6209
-23.969
2.65725
32.2083
60.7305
84.812
101.921
110.606
110.54
102.435
87.8316
68.8143
47.69
26.6763
7.6347
-8.12099
-19.926
-27.7719
-32.2292
-34.3048
-35.2591
-36.4107
-38.9548
-43.8182
-51.5639
-62.353
-75.9623
-91.8478
-109.242
-127.267
-145.046
-161.804
-176.938
-190.061
-201.004
-209.801
-216.639
-221.8
-225.601
-228.327
-230.191
-231.301
-231.648
-231.113
-229.497
-226.548
-222.007
-215.649
-207.316
-196.945
-184.585
-170.403
-154.672
-137.76
-120.103
-102.182
-84.4877
-67.4978
-51.6472
-37.3068
-24.7661
-14.2206
-5.76599
0.602575
4.98501
7.56551
8.5971
8.3826
7.25315
5.5461
3.58357
1.65339
-0.00630853
-1.21778
-1.8691
-1.91405
-1.36692
-0.292859
1.20501
3.00032
4.9585
6.9507
8.86528
10.616
12.1462
13.4296
14.4673
15.2822
15.9124
16.4031
16.7999
17.1432
17.4639
17.7819
18.1063
18.4367
18.7661
19.0831
19.375
19.6287
19.8308
19.9673
20.0217
19.9734
19.7965
19.4592
18.9256
18.1581
17.1215
15.788
14.1416
12.1821
9.92776
7.41499
4.69661
1.83738
-1.09199
-4.02202
-6.8917
-9.65509
-12.2861
-14.781
-17.1572
-19.4492
-21.7003
-23.9519
-26.2305
-28.534
-30.8199
-32.9958
-34.9162
-36.3854
-37.1692
-37.0136
-35.6716
-32.9333
-28.658
-22.8019
-15.4398
-6.7744
2.86581
13.0438
23.243
32.9077
41.4887
48.4929
53.5292
56.3478
56.8687
55.1958
51.6147
46.5735
40.645
34.4726
28.6996
23.8859
20.4154
18.4024
17.6067
17.3731
16.6109
13.8356
7.28505
-4.88123
-24.3075
-52.1189
-88.5953
-132.899
-182.923
-235.301
-285.629
-328.869
-359.921
-374.267
-368.614
-341.424
-293.248
-226.805
-146.774
-59.3378
28.4842
109.613
177.696
227.803
256.937
264.302
251.306
221.299
179.101
130.379
80.9723
36.2279
0.44953
-23.4967
-34.3793
-32.5928
-19.9622
0.601474
25.5416
51.1306
73.9216
91.1248
100.871
102.341
95.7646
82.2865
63.7462
42.3917
20.5739
0.456991
-16.2221
-28.3219
-35.3803
-37.6114
-35.825
-31.2839
-25.5208
-20.1405
-16.6286
-16.1897
-19.6289
-27.2883
-39.0389
-54.3275
-72.2659
-91.7518
-111.604
-130.693
-148.061
-162.998
-175.098
-184.26
-190.658
-194.677
-196.831
-197.666
-197.674
-197.216
-196.476
-195.439
-193.9
-191.508
-187.819
-182.37
-174.754
-164.68
-152.028
-136.871
-119.486
-100.328
-80.0009
-59.1979
-38.6468
-19.0489
-1.02474
14.9293
28.4699
39.4199
47.7648
53.6354
57.2789
59.0232
59.2384
58.3002
56.5588
54.316
51.8114
49.2184
46.6484
44.1611
41.7788
39.5015
37.3211
35.232
33.2381
31.3551
29.6092
28.0323
26.6567
25.5083
24.6018
23.9372
23.4987
23.2559
23.1668
23.1822
23.2495
23.318
23.341
23.2784
23.0973
22.7708
22.2776
21.6001
20.724
19.6387
18.338
16.8233
15.106
13.2104
11.1756
9.05556
6.91756
4.83786
2.89567
1.1654
-0.291881
-1.43682
-2.25926
-2.78384
-3.07324
-3.22843
-3.38571
-3.71011
-4.38538
-5.60062
-7.53427
-10.3365
-14.1113
-18.9004
-24.6705
-31.3049
-38.6029
-46.285
-54.0062
-61.3757
-67.9817
-73.4199
-77.3224
-79.3866
-79.3995
-77.2578
-72.9797
-66.7089
-58.7094
-49.3505
-39.0837
-28.4122
-17.8551
-7.91044
0.982073
8.47305
14.3289
18.4477
20.8636
21.7388
21.3435
20.0217
18.1466
16.0641
14.0298
12.1411
10.2727
8.02381
4.68952
-0.729905
-9.46746
-22.8655
-42.1874
-68.377
-101.791
-141.949
-187.351
-235.412
-282.558
-324.497
-356.648
-374.688
-375.142
-355.921
-316.732
-259.277
-187.203
-105.794
-21.4378
59.0629
129.247
183.715
218.726
232.579
225.752
200.774
161.86
114.364
64.122
16.7794
-22.8252
-51.1395
-66.1958
-67.703
-56.9371
-36.4573
-9.69702
19.5122
47.4208
70.7866
87.2017
95.2878
94.752
86.307
71.4812
52.3498
31.2292
10.3731
-8.29204
-23.3653
-34.085
-40.3534
-42.6771
-42.0395
-39.727
-37.1342
-35.5743
-36.1185
-39.4793
-45.9503
-55.4037
-67.341
-80.9859
-95.4028
-109.626
-122.779
-134.173
-143.37
-150.209
-154.795
-157.451
-158.644
-158.906
-158.743
-158.556
-158.585
-158.878
-159.282
-159.469
-158.983
-157.303
-153.918
-148.393
-140.437
-129.946
-117.029
-102.006
-85.3895
-67.8363
-50.091
-32.9178
-17.0313
-3.03464
8.62945
17.71
24.1585
28.1192
29.9006
29.9334
28.7193
26.777
24.5917
22.5736
21.0281
20.1403
19.974
20.4837
21.5366
22.9402
24.4728
25.913
27.0638
27.7711
27.9348
27.5126
26.5167
25.0066
23.0775
20.8475
18.4449
15.9959
13.6147
11.3958
9.40907
7.6968
6.27346
5.12732
4.22368
3.50935
2.91799
2.37596
1.8082
1.14376
0.320739
-0.709895
-1.98175
-3.512
-5.302
-7.33935
-9.60113
-12.0579
-14.6777
-17.4297
-20.2871
-23.2284
-26.2379
-29.3048
-32.421
-35.5788
-38.7667
-41.9654
-45.1437
-48.2538
-51.2276
-53.9734
-56.3757
-58.2956
-59.576
-60.0495
-59.55
-57.9279
-55.0675
-50.9041
-45.4403
-38.7566
-31.0166
-22.4629
-13.4047
-4.19603
4.79143
13.2004
20.7198
27.1134
32.2422
36.0778
38.705
40.314
41.1814
41.641
42.0451
42.7171
43.8971
45.6813
47.9612
50.3665
52.2226
52.5348
50.0142
43.1581
30.3957
10.2966
-18.1702
-55.3579
-100.688
-152.474
-207.869
-262.982
-313.171
-353.496
-379.281
-386.725
-373.449
-338.919
-284.648
-214.16
-132.688
-46.6454
37.0524
111.746
171.76
213.001
233.373
232.931
213.788
179.782
135.955
87.9208
41.2098
0.656961
-30.0783
-48.8208
-54.9891
-49.5083
-34.5533
-13.167
11.1878
35.0829
55.5304
70.2931
78.072
78.5598
72.3663
60.839
45.8093
29.3058
13.2722
-0.674558
-11.4192
-18.4407
-21.8187
-22.1611
-20.4709
-17.9744
-15.9382
-15.4981
-17.5224
-22.523
-30.6204
-41.5611
-54.7803
-69.4959
-84.8183
-99.8615
-113.84
-126.141
-136.369
-144.356
-150.143
-153.94
-156.066
-156.889
-156.765
-155.985
-154.741
-153.113
-151.065
-148.473
-145.15
-140.891
-135.512
-128.887
-120.976
-111.842
-101.647
-90.6454
-79.1554
-67.5338
-56.1413
-45.3119
-35.3273
-26.3989
-18.658
-12.155
-6.86703
-2.70987
0.445028
2.75294
4.37871
5.48201
6.20594
6.66967
6.96487
7.15566
7.28114
7.35984
7.39505
7.3803
7.30451
7.15627
6.92717
6.61409
6.22056
5.75722
5.24159
4.69729
4.15256
3.63856
3.18713
2.82848
2.58872
2.48756
2.53646
2.73719
3.08146
3.55137
4.12102
4.75902
5.43164
6.10601
6.75302
7.34914
7.8771
8.32511
8.68497
8.94943
9.10954
9.15237
9.05999
8.80972
8.37586
7.73275
6.8584
5.7384
4.36902
2.75914
0.930438
-1.08447
-3.24566
-5.51096
-7.84162
-10.2078
-12.5931
-14.9969
-17.4351
-19.9386
-22.5494
-25.3162
-28.288
-31.5083
-35.0087
-38.8035
-42.8838
-47.2139
-51.7272
-56.3235
-60.8679
-65.191
-69.0914
-72.3417
-74.6983
-75.9151
-75.7629
-74.0504
-70.6481
-65.5091
-58.6861
-50.3401
-40.7382
-30.2405
-19.2749
-8.30272
2.22075
11.8883
20.3785
27.4852
33.1351
37.3903
40.4342
42.5413
44.032
45.2146
46.3185
47.4223
48.3847
48.7849
47.8867
44.6376
37.7189
25.6588
7.01179
-19.4014
-54.2174
-97.2557
-147.297
-201.968
-257.783
-310.357
-354.805
-386.269
-400.526
-394.575
-367.129
-318.91
-252.714
-173.209
-86.49
0.560034
81.0108
148.643
198.62
227.985
235.932
223.815
194.905
153.939
106.513
58.4174
14.9791
-19.4942
-42.1173
-51.6364
-48.433
-34.3372
-12.2864
14.1167
41.0868
65.1181
83.3717
93.9496
96.0315
89.8696
76.6565
58.2925
37.089
15.4511
-4.422
-20.784
-32.5111
-39.1818
-41.0652
-39.0286
-34.3824
-28.6874
-23.5497
-20.4296
-20.4846
-24.461
-32.6414
-44.8492
-60.5022
-78.7049
-98.3661
-118.324
-137.469
-154.841
-169.711
-181.621
-190.393
-196.109
-199.067
-199.71
-198.559
-196.131
-192.882
-189.146
-185.112
-180.809
-176.122
-170.819
-164.6
-157.146
-148.18
-137.512
-125.088
-111.011
-95.5533
-79.1453
-62.3462
-45.7999
-30.1779
-16.1188
-4.16777
5.27403
11.9865
15.9489
17.3377
16.5041
13.9352
10.2019
5.90162
1.60041
-2.21718
-5.18691
-7.08788
-7.84867
-7.53695
-6.3351
-4.50573
-2.35183
-0.176571
1.75251
3.23136
4.13668
4.43171
4.16101
3.43597
2.41367
1.27257
0.188075
-0.68875
-1.24723
-1.42626
-1.21633
-0.654841
0.184087
1.20328
2.29772
3.36918
4.33841
5.15366
5.79477
6.27269
6.62509
6.9089
7.19102
7.53873
8.01091
8.6513
9.48439
10.5142
11.7257
13.0886
14.5618
16.0985
17.6504
19.1708
20.6153
21.9424
23.111
24.0791
24.8013
25.2285
25.3076
24.9846
24.2079
22.9331
21.1292
18.7825
15.9006
12.5131
8.66994
4.43655
-0.112866
-4.90337
-9.86686
-14.9479
-20.1061
-25.315
-30.5566
-35.8128
-41.0542
-46.2291
-51.2535
-56.0049
-60.3213
-64.0072
-66.8452
-68.6147
-69.1136
-68.1823
-65.7247
-61.7257
-56.2603
-49.4945
-41.6766
-33.1203
-24.1801
-15.2238
-6.60287
1.37502
8.4684
14.518
19.4549
23.2997
26.1551
28.1913
29.6259
30.7006
31.6542
32.6921
33.9529
35.4707
37.1341
38.643
39.4693
38.8287
35.6782
28.7523
16.6555
-1.98214
-28.2861
-62.8739
-105.583
-155.238
-209.519
-264.978
-317.236
-361.369
-392.443
-406.137
-399.358
-370.758
-321.063
-253.144
-171.814
-83.3672
5.09033
86.4223
154.255
203.678
231.757
237.805
223.376
191.989
148.647
99.1886
49.5891
5.28616
-29.39
-51.6149
-60.2627
-55.8856
-40.497
-17.2024
10.2679
38.0564
62.6463
81.2434
92.0361
94.3103
88.4226
75.6452
57.9165
37.536
16.8457
-2.05997
-17.5657
-28.6842
-35.1138
-37.2072
-35.8636
-32.366
-28.1876
-24.7939
-23.4641
-25.1511
-30.3925
-39.2785
-51.4747
-66.2927
-82.7958
-99.9241
-116.623
-131.962
-145.224
-155.965
-164.04
-169.576
-172.935
-174.629
-175.237
-175.314
-175.306
-175.487
-175.924
-176.463
-176.757
-176.31
-174.55
-170.902
-164.877
-156.136
-144.554
-130.245
-113.572
-95.1213
-75.6567
-56.0487
-37.1957
-19.941
-4.99614
7.12117
16.1271
21.9872
24.9055
25.2904
23.7016
20.7852
17.2054
13.5788
10.4204
8.10483
6.84634
6.69784
7.56753
9.24921
11.4616
13.891
16.2323
18.2235
19.6711
20.4634
20.5732
20.0501
19.0042
17.5858
15.9624
14.2967
12.7292
11.3643
10.2637
9.4451
8.88699
8.53666
8.32149
8.161
7.97829
7.7097
7.31157
6.76391
6.07066
5.25712
4.36493
3.44568
2.55388
1.74022
1.04592
0.498741
0.110887
-0.121071
-0.214507
-0.197699
-0.105998
0.0221849
0.149001
0.239932
0.26545
0.201514
0.0290704
-0.267112
-0.699835
-1.28068
-2.02064
-2.92998
-4.01729
-5.28789
-6.74191
-8.37264
-10.1655
-12.0981
-14.1422
-16.2664
-18.4401
-20.6395
-22.8514
-25.0789
-27.3437
-29.6873
-32.1684
-34.8583
-37.8314
-41.1549
-44.8755
-49.0077
-53.5238
-58.3468
-63.3485
-68.3531
-73.1446
-77.4789
-81.0997
-83.755
-85.2148
-85.2878
-83.8369
-80.7912
-76.1551
-70.0124
-62.5258
-53.9305
-44.5218
-34.6378
-24.6368
-14.8723
-5.66792
2.7071
10.0571
16.2732
21.3381
25.3219
28.369
30.6752
32.4585
33.9226
35.2148
36.3807
37.3159
37.7199
37.0573
34.5359
29.1161
19.5643
4.56471
-17.1055
-46.3454
-83.4684
-127.949
-178.23
-231.649
-284.517
-332.385
-370.466
-394.186
-399.788
-384.889
-348.908
-293.296
-221.508
-138.718
-51.3071
33.8195
109.986
171.478
214.155
235.869
236.636
218.545
185.434
142.367
95.0044
48.9329
9.046
-20.9509
-38.8621
-44.1225
-37.716
-21.9174
0.0968264
24.7126
48.3531
67.906
81.0564
86.4907
83.9599
74.2063
58.7754
39.7461
19.4212
0.0180808
-16.6002
-29.1247
-36.9131
-40.0082
-39.07
-35.2371
-29.942
-24.7089
-20.9591
-19.8491
-22.1571
-28.2267
-37.9682
-50.9108
-66.2936
-83.1791
-100.573
-117.537
-133.277
-147.205
-158.971
-168.457
-175.747
-181.077
-184.776
-187.19
-188.632
-189.325
-189.372
-188.741
-187.278
-184.724
-180.761
-175.062
-167.339
-157.398
-145.182
-130.798
-114.535
-96.8496
-78.3481
-59.7386
-41.7758
-25.1961
-10.6524
1.34431
10.4701
16.615
19.8878
20.5992
19.2252
16.3546
12.6281
8.67431
5.05118
2.19858
0.406334
-0.199295
0.34942
1.88342
4.13161
6.7636
9.43493
11.8294
13.6936
14.8607
15.2613
14.9211
13.948
12.5091
10.8043
9.03685
7.38787
5.99552
4.94226
4.25064
3.88751
3.77536
3.80849
3.87156
3.85773
3.684
3.30194
2.7027
1.91624
1.00507
0.0541544
-0.841641
-1.59055
-2.11554
-2.36325
-2.3091
-1.95848
-1.34397
-0.519505
0.447495
1.48472
2.52288
3.50174
4.37343
5.10267
5.66403
6.03723
6.20145
6.13027
5.78842
5.13145
4.10866
2.66905
0.769449
-1.61651
-4.49019
-7.82219
-11.5502
-15.5815
-19.7999
-24.0768
-28.2848
-32.312
-36.0746
-39.5265
-42.6627
-45.5172
-48.1547
-50.6558
-53.0991
-55.5413
-57.9986
-60.4326
-62.7432
-64.7696
-66.3018
-67.1002
-66.9216
-65.5497
-62.8242
-58.6656
-53.0915
-46.2227
-38.277
-29.5519
-20.3981
-11.1879
-2.28053
6.00824
13.432
19.8297
25.1319
29.3552
32.5873
34.9617
36.6239
37.6904
38.2016
38.0705
37.0329
34.6057
30.0643
22.4536
10.6464
-6.53946
-30.1628
-60.9292
-98.9379
-143.445
-192.697
-243.882
-293.242
-336.354
-368.572
-385.572
-383.938
-361.693
-318.697
-256.828
-179.929
-93.493
-4.12608
81.1375
155.594
213.598
251.163
266.373
259.536
233.085
191.235
139.449
83.7868
30.2189
-16.0136
-50.9133
-72.067
-78.7811
-72.0118
-54.1116
-28.4381
1.11929
30.6306
56.5769
76.2105
87.7908
90.6793
85.2947
72.9487
55.5917
35.5097
15.0114
-3.85406
-19.5197
-31.0411
-38.1482
-41.209
-41.1197
-39.1419
-36.7105
-35.2401
-35.9509
-39.7349
-47.073
-58.0081
-72.1714
-88.854
-107.11
-125.878
-144.1
-160.835
-175.338
-187.118
-195.956
-201.893
-205.184
-206.245
-205.574
-203.675
-200.997
-197.875
-194.494
-190.878
-186.895
-182.281
-176.69
-169.741
-161.083
-150.451
-137.721
-122.949
-106.388
-88.4881
-69.8676
-51.2687
-33.4908
-17.317
-3.43792
7.6164
15.5292
20.2276
21.8871
20.9107
17.8831
13.5083
8.53554
3.68447
-0.423596
-3.31954
-4.72091
-4.54377
-2.89225
-0.0283885
3.67269
7.77604
11.8418
15.4748
18.3646
20.3109
21.2333
21.1669
20.2433
18.6638
16.6664
14.493
12.3601
10.4365
8.82984
7.58298
6.67927
6.05495
5.6164
5.25915
4.88596
4.42154
3.82231
3.08034
2.2216
1.29935
0.384143
-0.447878
-1.12649
-1.59727
-1.82853
-1.81477
-1.57639
-1.15626
-0.613574
-0.0164097
0.566269
1.07189
1.45009
1.6665
1.70413
1.56261
1.25538
0.805492
0.240575
-0.412275
-1.13117
-1.90314
-2.72645
-3.6115
-4.58014
-5.6638
-6.90063
-8.33225
-10.0007
-11.946
-14.2044
-16.8078
-19.7833
-23.1524
-26.9298
-31.1196
-35.7101
-40.6659
-45.9189
-51.3592
-56.8279
-62.1134
-66.9545
-71.0505
-74.0795
-75.7246
-75.7044
-73.8064
-69.9179
-64.049
-56.3458
-47.0897
-36.6809
-25.6092
-14.4128
-3.63118
6.24312
14.8078
21.7847
27.0391
30.5848
32.5717
33.2607
32.9866
32.1134
30.9833
29.8645
28.895
28.0295
26.9892
25.2253
21.9055
15.9401
6.05923
-9.04522
-30.5172
-59.0858
-94.8007
-136.798
-183.154
-230.874
-276.051
-314.201
-340.752
-351.622
-343.806
-315.882
-268.354
-203.753
-126.487
-42.434
41.669
118.962
183.227
229.578
254.997
258.63
241.826
207.922
161.787
109.22
56.2606
8.50424
-29.4847
-54.6103
-65.4816
-62.4356
-47.3579
-23.3382
5.78853
35.9488
63.3237
84.7698
98.1225
102.359
97.6084
85.0282
66.5655
44.6488
21.8493
0.557132
-17.2921
-30.4101
-38.2541
-41.0259
-39.5818
-35.2719
-29.7332
-24.6673
-21.6287
-21.8487
-26.1126
-34.6994
-47.3863
-63.5111
-82.08
-101.904
-121.744
-140.454
-157.089
-170.99
-181.819
-189.555
-194.454
-196.973
-197.683
-197.172
-195.958
-194.417
-192.739
-190.913
-188.742
-185.887
-181.925
-176.424
-169.008
-159.427
-147.594
-133.612
-117.771
-100.527
-82.4589
-64.2146
-46.4545
-29.7931
-14.7502
-1.71425
9.07988
17.5561
23.788
27.9761
30.4168
31.4645
31.4938
30.8632
29.8849
28.8036
27.7836
26.9071
26.1813
25.553
24.9284
24.1953
23.2456
21.9934
20.3899
18.4305
16.156
13.6477
11.0163
8.38867
5.89244
3.6414
1.72357
0.193061
-0.93348
-1.67564
-2.08382
-2.23063
-2.20039
-2.07819
-1.93992
-1.84429
-1.82775
-1.9026
-2.05828
-2.26551
-2.4824
-2.66191
-2.7594
-2.73954
-2.58163
-2.28282
-1.85905
-1.34352
-0.783366
-0.234831
0.24211
0.588903
0.752495
0.687717
0.357628
-0.268013
-1.21553
-2.51039
-4.17924
-6.24989
-8.74831
-11.6924
-15.083
-18.8929
-23.0566
-27.461
-31.9418
-36.2844
-40.2327
-43.5049
-45.8146
-46.8964
-46.5322
-44.5753
-40.9694
-35.7594
-29.0931
-21.2131
-12.4393
-3.1434
6.28018
15.4466
24.0107
31.693
38.2989
43.7302
47.987
51.1611
53.4205
54.9854
56.0973
56.9807
57.7975
58.5973
59.2643
59.4676
58.6227
55.877
50.1329
40.1233
24.5464
2.26224
-27.4672
-64.7221
-108.698
-157.562
-208.428
-257.504
-300.398
-332.568
-349.872
-349.124
-328.593
-288.35
-230.405
-158.602
-78.2752
4.28882
82.528
150.318
202.635
236.089
249.247
242.723
219.03
182.209
137.303
89.7428
44.7228
6.64252
-21.3184
-37.4534
-41.5891
-34.9623
-19.9393
0.372505
22.5662
43.3717
60.0339
70.5918
74.0341
70.323
60.2962
45.4717
27.7876
9.31677
-8.00606
-22.6126
-33.4599
-40.1075
-42.7119
-41.946
-38.8635
-34.7284
-30.8366
-28.3513
-28.1719
-30.8484
-36.5485
-45.0731
-55.9158
-68.3511
-81.5396
-94.6337
-106.871
-117.646
-126.556
-133.412
-138.227
-141.18
-142.563
-142.719
-141.982
-140.624
-138.816
-136.599
-133.882
-130.459
-126.031
-120.251
-112.773
-103.301
-91.6312
-77.6906
-61.5589
-43.4762
-23.8344
-3.15445
17.9496
38.815
58.7794
77.2303
93.6494
107.648
118.992
127.611
133.593
137.167
138.674
138.528
137.174
135.045
132.531
129.941
127.489
125.287
123.345
121.585
119.862
117.988
115.755
112.961
109.428
105.017
99.6386
93.2559
85.8892
77.6129
68.5511
58.871
48.7733
38.4802
28.2228
18.2259
8.6934
-0.204107
-8.34009
-15.6379
-22.0719
-27.663
-32.4696
-36.5742
-40.0681
-43.0358
-45.5403
-47.6131
-49.2485
-50.4049
-51.0115
-50.9808
-50.2251
-48.6752
-46.298
-43.1118
-39.1962
-34.6959
-29.8165
-24.8136
-19.9739
-15.5923
-11.945
-9.26214
-7.70182
-7.32903
-8.10118
-9.86275
-12.3505
-15.2097
-18.021
-20.3362
-21.7186
-21.7849
-20.2424
-16.9178
-11.7737
-4.91027
3.44619
12.9664
23.2496
33.8578
44.35
54.3121
63.3803
71.2576
77.723
82.6352
85.9303
87.6162
87.7622
86.4847
83.9262
80.2265
75.4856
69.7182
62.8041
54.4423
44.1206
31.1151
14.5356
-6.57301
-33.0683
-65.4995
-103.873
-147.433
-194.514
-242.498
-287.931
-326.791
-354.908
-368.47
-364.565
-341.654
-299.911
-241.364
-169.793
-90.4013
-9.29428
67.1785
133.117
183.713
215.767
227.991
221.096
197.626
161.599
117.978
72.0781
28.9494
-7.15433
-33.1858
-47.541
-50.1091
-42.1453
-25.9933
-4.70517
18.3871
40.0934
57.7293
69.3831
74.0636
71.7197
63.1451
49.7869
33.4941
16.242
-0.131317
-14.1441
-24.8225
-31.7731
-35.1746
-35.6971
-34.368
-32.405
-31.0412
-31.365
-34.1922
-39.9842
-48.8164
-60.3964
-74.1235
-89.1797
-104.637
-119.567
-133.14
-144.706
-153.84
-160.368
-164.351
-166.055
-165.889
-164.341
-161.907
-159.026
-156.025
-153.089
-150.24
-147.349
-144.159
-140.327
-135.481
-129.269
-121.421
-111.794
-100.401
-87.4286
-73.2302
-58.2999
-43.2297
-28.6533
-15.1848
-3.35875
6.42156
13.9206
19.0887
22.0587
23.1244
22.7006
21.2738
19.3465
17.384
15.7695
14.7706
14.5231
15.0303
16.1783
17.7642
19.5313
21.2091
22.5499
23.3601
23.5217
23.0017
21.8507
20.1905
18.1939
16.0598
13.9874
12.1519
10.6857
9.66664
9.11353
8.98929
9.21052
9.66142
10.21
10.7246
11.0876
11.2074
11.024
10.5116
9.67632
8.55084
7.1864
5.64428
3.9874
2.27309
0.547811
-1.15594
-2.82074
-4.44361
-6.03418
-7.61233
-9.20568
-10.8472
-12.5734
-14.4225
-16.4328
-18.641
-21.0805
-23.7783
-26.7529
-30.0111
-33.5457
-37.3335
-41.3344
-45.4913
-49.7311
-53.9656
-58.0934
-62.0001
-65.5596
-68.6345
-71.0771
-72.7331
-73.4473
-73.0726
-71.4834
-68.59
-64.3553
-58.8082
-52.0538
-44.2759
-35.7316
-26.7373
-17.646
-8.81979
-0.598891
6.72742
12.9455
17.9336
21.6683
24.219
25.7314
26.4004
26.4337
26.0067
25.2122
24.0055
22.1512
19.1788
14.3602
6.72273
-4.88733
-21.6787
-44.727
-74.7371
-111.788
-155.101
-202.89
-252.339
-299.735
-340.778
-371.028
-386.449
-383.967
-361.955
-320.576
-261.906
-189.819
-109.639
-27.5912
49.8673
116.757
168.227
201.068
214.021
207.851
185.173
150.086
107.63
63.1814
21.8319
-12.1534
-35.7483
-47.4046
-47.1002
-36.207
-17.2066
6.69961
32.0298
55.4547
74.1726
86.1859
90.4556
86.9268
76.4343
60.5107
41.1304
20.4276
0.422258
-17.2099
-31.3032
-41.2882
-47.1966
-49.593
-49.4498
-47.985
-46.4886
-46.1581
-47.9623
-52.5461
-60.184
-70.7799
-83.9095
-98.8953
-114.901
-131.032
-146.433
-160.367
-172.274
-181.804
-188.821
-193.385
-195.712
-196.128
-195.005
-192.715
-189.574
-185.813
-181.549
-176.786
-171.422
-165.271
-158.096
-149.651
-139.719
-128.157
-114.925
-100.107
-83.924
-66.726
-48.9727
-31.2002
-13.979
2.13339
16.6405
29.1489
39.401
47.2942
52.8852
56.378
58.0982
58.4569
57.9073
56.8996
55.8398
55.0553
54.7711
55.0994
56.0409
57.4987
59.3006
61.2287
63.0492
64.5429
65.5295
65.8855
65.5533
64.5414
62.9172
60.7927
58.3072
55.6077
52.8315
50.0911
47.465
44.9931
42.6783
40.4918
38.3826
36.2883
34.1459
31.9013
29.5165
26.9745
24.2802
21.4599
18.5585
15.6347
12.756
9.99373
7.4169
5.08765
3.05632
1.35723
0.00486236
-1.00928
-1.71889
-2.18388
-2.48965
-2.74451
-3.07526
-3.62118
-4.52699
-5.93537
-7.97937
-10.7751
-14.4144
-18.9583
-24.43
-30.8092
-38.0276
-45.9665
-54.4576
-63.2877
-72.207
-80.9421
-89.211
-96.7407
-103.284
-108.635
-112.643
-115.216
-116.33
-116.021
-114.381
-111.549
-107.696
-103.013
-97.6977
-91.9425
-85.9228
-79.7888
-73.6585
-67.6136
-61.6984
-55.921
-50.2581
-44.6634
-39.0786
-33.4488
-27.7406
-21.966
-16.2102
-10.6654
-5.66794
-1.73597
0.399572
-0.2174
-4.74742
-14.4861
-30.7346
-54.6079
-86.7934
-127.291
-175.177
-228.451
-284.01
-337.791
-385.086
-421.014
-441.094
-441.83
-421.245
-379.25
-317.802
-240.811
-153.795
-63.3225
23.6829
100.691
162.264
204.62
225.987
226.715
209.134
177.184
135.886
90.7127
46.9496
9.12592
-19.4231
-36.8177
-42.7012
-38.1218
-25.2584
-7.03803
13.2989
32.627
48.307
58.4586
62.1123
59.2323
50.6213
37.7309
22.4099
6.62802
-7.78792
-19.3748
-27.1879
-30.8765
-30.6805
-27.3535
-22.0308
-16.0627
-10.8348
-7.59935
-7.33558
-10.6523
-17.7407
-28.3781
-41.9776
-57.6743
-74.4349
-91.1765
-106.881
-120.693
-131.988
-140.415
-145.9
-148.618
-148.948
-147.394
-144.515
-140.842
-136.812
-132.72
-128.691
-124.679
-120.492
-115.834
-110.364
-103.764
-95.7934
-86.3462
-75.4818
-63.4354
-50.6056
-37.5179
-24.7711
-12.9728
-2.67166
5.70324
11.8894
15.8172
17.6139
17.5828
16.1648
13.8831
11.2829
8.8706
7.06167
6.14257
6.25008
7.36991
9.35295
11.9462
14.8331
17.6781
20.1693
22.0544
23.1666
23.437
22.8953
21.6576
19.9058
17.8607
15.7534
13.7978
12.1684
10.9843
10.3018
10.1148
10.3625
10.9426
11.7277
12.5833
13.3834
14.0245
14.4341
14.5749
14.4441
14.0686
13.4969
12.7892
12.0079
11.2083
10.4321
9.70317
9.02678
8.39138
7.77284
7.14007
6.46108
5.70844
4.86347
3.91844
2.8769
1.75214
0.564346
-0.662828
-1.90572
-3.14346
-4.35972
-5.54354
-6.68915
-7.79553
-8.86631
-9.91046
-10.9444
-11.9952
-13.1044
-14.3317
-15.7565
-17.4777
-19.6085
-22.2688
-25.5731
-29.6165
-34.4598
-40.116
-46.5402
-53.6238
-61.1956
-69.0283
-76.8509
-84.365
-91.2631
-97.2475
-102.047
-105.434
-107.229
-107.318
-105.648
-102.233
-97.1539
-90.5532
-82.6308
-73.6355
-63.8544
-53.5987
-43.1874
-32.9284
-23.101
-13.9379
-5.61251
1.76925
8.1705
13.617
18.183
21.9697
25.075
27.5583
29.3965
30.4383
30.3567
28.6093
24.4172
16.7759
4.51533
-13.5791
-38.5811
-71.1838
-111.434
-158.484
-210.418
-264.212
-315.85
-360.644
-393.706
-410.538
-407.654
-383.137
-337.04
-271.553
-190.903
-100.985
-8.76088
78.4893
153.969
212.109
249.166
263.586
256.101
229.561
188.512
138.607
85.913
36.2156
-5.60082
-36.0209
-53.1722
-56.8846
-48.5456
-30.7847
-7.04111
18.9242
43.5073
63.6734
77.2596
83.1413
81.2542
72.4855
58.4577
41.2439
23.0556
5.94468
-8.44554
-19.0517
-25.4722
-27.9556
-27.3076
-24.734
-21.6476
-19.4643
-19.4182
-22.4142
-28.9362
-39.0152
-52.2574
-67.9225
-85.037
-102.527
-119.35
-134.608
-147.638
-158.054
-165.763
-170.932
-173.935
-175.272
-175.49
-175.098
-174.499
-173.95
-173.533
-173.163
-172.612
-171.552
-169.606
-166.4
-161.615
-155.023
-146.515
-136.113
-123.972
-110.368
-95.6787
-80.3548
-64.892
-49.7949
-35.5435
-22.5613
-11.1867
-1.65275
5.92598
11.5556
15.3557
17.5418
18.4011
18.2625
17.4652
16.3284
15.1255
14.066
13.2842
12.8383
12.7166
12.8502
13.1312
13.4326
13.6273
13.6061
13.2907
12.6414
11.6605
10.3889
8.89987
7.28847
5.6604
4.12002
2.75994
1.65274
0.845513
0.357614
0.1813
0.284925
0.618027
1.11758
1.71468
2.34089
2.9339
3.44181
3.82607
4.06283
4.14289
4.07032
3.86022
3.53573
3.12479
2.65705
2.16103
1.66196
1.18018
0.730347
0.32119
-0.0441268
-0.367265
-0.653682
-0.911477
-1.15022
-1.37991
-1.61009
-1.84923
-2.10439
-2.38136
-2.68521
-3.02177
-3.39991
-3.83485
-4.352
-4.9906
-5.80626
-6.87126
-8.27174
-10.1017
-12.4543
-15.4111
-19.032
-23.3466
-28.3493
-33.9978
-40.2179
-46.9098
-53.9578
-61.2399
-68.6342
-76.0228
-83.2896
-90.3135
-96.9582
-103.061
-108.421
-112.797
-115.91
-117.455
-117.126
-114.648
-109.812
-102.517
-92.7974
-80.8473
-67.0242
-51.836
-35.9086
-19.9382
-4.63285
9.35085
21.4661
31.3241
38.725
43.6681
46.341
47.0882
46.3632
44.6686
42.4894
40.2228
38.1096
36.1702
34.1502
31.4833
27.2819
20.3676
9.35657
-7.19331
-30.5706
-61.6497
-100.611
-146.691
-198.008
-251.533
-303.222
-348.343
-381.963
-399.538
-397.543
-374.02
-328.983
-264.587
-185.024
-96.1571
-4.92796
81.3919
156
213.31
249.553
263.145
254.801
227.363
185.391
134.574
81.0361
30.6342
-11.6657
-42.2689
-59.2367
-62.3552
-52.9993
-33.8221
-8.32382
19.6386
46.3366
68.591
84.0853
91.5433
90.7625
82.5155
68.3431
50.2784
30.5405
11.2405
-5.86609
-19.5551
-29.2238
-34.8926
-37.1296
-36.9131
-35.4595
-34.0384
-33.8025
-35.6506
-40.138
-47.4403
-57.3694
-69.434
-82.933
-97.0644
-111.037
-124.166
-135.95
-146.106
-154.58
-161.517
-167.211
-172.034
-176.359
-180.49
-184.596
-188.684
-192.579
-195.941
-198.304
-199.135
-197.896
-194.12
-187.472
-177.796
-165.148
-149.802
-132.234
-113.088
-93.1282
-73.1711
-54.0258
-36.4285
-20.9879
-8.1428
1.86285
8.98809
13.3841
15.3671
15.3791
13.939
11.5919
8.85876
6.19428
3.95376
2.37364
1.56534
1.52235
2.1385
3.23442
4.58869
5.96972
7.16505
8.00483
8.37775
8.2384
7.60608
6.55621
5.20613
3.69747
2.17755
0.78205
-0.379138
-1.2316
-1.74087
-1.91176
-1.78306
-1.41881
-0.897424
-0.300313
0.298665
0.841613
1.29206
1.63705
1.8859
2.06606
2.21699
2.38293
2.60583
2.91927
3.34407
3.8858
4.53416
5.26389
6.03662
6.80354
7.50829
8.09026
8.48803
8.64307
8.50358
8.02825
7.18978
5.97756
4.39937
2.48135
0.266104
-2.19135
-4.8297
-7.58916
-10.4201
-13.2917
-16.1986
-19.1657
-22.2481
-25.5277
-29.1047
-33.0856
-37.5677
-42.6232
-48.2829
-54.5232
-61.256
-68.325
-75.5074
-82.5221
-89.0433
-94.719
-99.193
-102.128
-103.231
-102.273
-99.1122
-93.7051
-86.12
-76.5375
-65.2463
-52.6302
-39.1469
-25.301
-11.6116
1.42107
13.3485
23.8021
32.5141
39.3306
44.214
47.2366
48.5649
48.4366
47.13
44.9278
42.0727
38.7163
34.8619
30.3058
24.5872
16.9605
6.40851
-8.28544
-28.394
-55.031
-88.8823
-129.918
-177.138
-228.415
-280.48
-329.097
-369.435
-396.589
-406.216
-395.168
-362.042
-307.543
-234.595
-148.16
-54.7923
38.048
122.803
192.663
242.326
268.574
270.594
250.007
210.607
157.856
98.2036
38.3261
-15.6205
-58.6382
-87.349
-100.236
-97.6479
-81.5914
-55.3439
-22.9579
11.2795
43.3601
69.9832
88.8555
98.8375
99.9371
93.1647
80.2831
63.4951
45.1123
27.2488
11.5758
-0.8404
-9.60456
-14.9651
-17.706
-18.9808
-20.1142
-22.4019
-26.9316
-34.4476
-45.2715
-59.2832
-75.9595
-94.4607
-113.749
-132.723
-150.349
-165.77
-178.394
-187.932
-194.402
-198.102
-199.54
-199.358
-198.241
-196.824
-195.624
-194.978
-195.013
-195.641
-196.582
-197.403
-197.579
-196.56
-193.836
-189.003
-181.799
-172.139
-160.119
-146.001
-130.186
-113.175
-95.5215
-77.7897
-60.5115
-44.1562
-29.1085
-15.6565
-3.9886
5.80161
13.7057
19.7871
24.1662
27.0059
28.4968
28.8456
28.2636
26.9584
25.127
22.9502
20.5886
18.1805
15.8399
13.6557
11.6924
9.99148
8.57284
7.43834
6.57501
5.95904
5.55973
5.34322
5.27553
5.32474
5.46209
5.66209
5.90181
6.15965
6.41405
6.64249
6.82109
6.92502
6.92962
6.81224
6.5544
6.14391
5.57667
4.85763
4.00089
3.02865
1.96935
0.854918
-0.282271
-1.41243
-2.5111
-3.56112
-4.55379
-5.48902
-6.37464
-7.22493
-8.05871
-8.89739
-9.76319
-10.6782
-11.6643
-12.7438
-13.9415
-15.2863
-16.8127
-18.5611
-20.5768
-22.9059
-25.5904
-28.6597
-32.1222
-35.9565
-40.1023
-44.4554
-48.8637
-53.129
-57.0119
-60.2425
-62.535
-63.607
-63.2018
-61.112
-57.2026
-51.4308
-43.8597
-34.6637
-24.1241
-12.6141
-0.575033
11.5155
23.1791
33.9729
43.5232
51.5516
57.8921
62.4948
65.4176
66.8021
66.8369
65.7075
63.5354
60.3119
55.8317
49.6396
41.0031
28.9285
12.2368
-10.2917
-39.7036
-76.6089
-120.901
-171.51
-226.25
-281.806
-333.904
-377.67
-408.135
-420.858
-412.542
-381.579
-328.416
-255.683
-168.043
-71.7847
25.8162
117.26
195.631
255.334
292.674
306.194
296.756
267.343
222.632
168.393
110.801
55.7436
8.2172
-28.1364
-51.2962
-60.9205
-58.2077
-45.5918
-26.3249
-4.00626
17.8802
36.3657
49.2918
55.476
54.741
47.8189
36.1543
21.641
6.33282
-7.83505
-19.2798
-26.9371
-30.3454
-29.6485
-25.5233
-19.0493
-11.5431
-4.37983
1.17541
4.10609
3.73998
-0.205469
-7.62841
-18.0924
-30.91
-45.2456
-60.2234
-75.0253
-88.9693
-101.559
-112.505
-121.714
-129.253
-135.306
-140.106
-143.885
-146.821
-149.007
-150.431
-150.98
-150.462
-148.63
-145.229
-140.029
-132.868
-123.677
-112.5
-99.5005
-84.9529
-69.2267
-52.7602
-36.0287
-19.5109
-3.65704
11.1393
24.5624
36.3879
46.4873
54.8245
61.4452
66.4604
70.0274
72.3294
73.5567
73.8915
73.4967
72.5108
71.0469
69.1961
67.0338
64.6268
62.04
59.3411
56.603
53.9031
51.3193
48.9249
46.7814
44.9323
43.3977
42.1713
41.2206
40.489
39.902
39.3737
38.8156
38.1442
37.2879
36.1919
34.8209
33.1589
31.2078
28.9852
26.5206
23.8537
21.0316
18.1082
15.1428
12.1989
9.34284
6.64044
4.1532
1.9332
0.0175222
-1.57721
-2.85936
-3.86523
-4.65986
-5.33521
-6.00571
-6.80121
-7.85764
-9.30609
-11.261
-13.8081
-16.994
-20.8166
-25.2192
-30.0879
-35.2524
-40.4916
-45.5439
-50.1212
-53.9266
-56.6759
-58.1198
-58.067
-56.4043
-53.1127
-48.2767
-42.0851
-34.8227
-26.8516
-18.5853
-10.4564
-2.88078
3.77677
9.23349
13.3121
15.9546
17.2256
17.304
16.4632
15.0417
13.4036
11.89
10.7643
10.1514
9.97569
9.90499
9.30874
7.24524
2.49229
-6.3645
-20.7771
-42.0174
-70.9127
-107.572
-151.145
-199.679
-250.111
-298.433
-340.04
-370.221
-384.743
-380.44
-355.725
-310.931
-248.419
-172.436
-88.7119
-3.86523
75.3279
142.687
193.313
224.111
234.09
224.405
198.132
159.833
114.958
69.1729
27.6979
-5.25823
-26.9067
-36.088
-33.2701
-20.3487
-0.290919
23.3232
46.7957
66.7786
80.6573
86.8103
84.7222
74.9499
58.9573
38.8527
17.0694
-3.96633
-22.1358
-35.8645
-44.2709
-47.2172
-45.2651
-39.552
-31.6076
-23.1417
-15.828
-11.1127
-10.0654
-13.2889
-20.8896
-32.5089
-47.4036
-64.5623
-82.8399
-101.093
-118.297
-133.644
-146.591
-156.884
-164.535
-169.776
-172.987
-174.614
-175.09
-174.764
-173.853
-172.407
-170.316
-167.328
-163.095
-157.237
-149.407
-139.362
-127.017
-112.488
-96.1068
-78.4108
-60.1047
-42.0006
-24.9403
-9.71273
3.02666
12.8216
19.4592
22.9873
23.7019
22.1082
18.8598
14.6846
10.306
6.36884
3.37927
1.66364
1.35031
2.37486
4.50639
7.39032
10.6016
13.7014
16.2903
18.0532
18.7895
18.4287
17.0292
14.7619
11.883
8.69842
5.52579
2.65814
0.333242
-1.2881
-2.13313
-2.21718
-1.63347
-0.534666
0.890776
2.44433
3.94161
5.23209
6.21211
6.83008
7.08371
7.01073
6.67481
6.14949
5.50258
4.78342
4.0147
3.18959
2.27428
1.21494
-0.0521938
-1.58962
-3.44785
-5.65692
-8.22086
-11.1157
-14.2901
-17.6684
-21.1543
-24.6338
-27.9777
-31.0422
-33.6692
-35.6868
-36.9122
-37.1567
-36.2357
-33.982
-30.2632
-25.0007
-18.188
-9.90563
-0.330284
10.2655
21.5237
33.021
44.2993
54.9017
64.4115
72.49
78.9076
83.5668
86.5118
87.9248
88.1082
87.4516
86.3858
85.3244
84.5951
84.3645
84.563
84.8185
84.4121
82.2723
77.0234
67.1034
50.9539
27.2753
-4.68036
-44.82
-91.9811
-143.819
-196.856
-246.725
-288.579
-317.654
-329.882
-322.485
-294.447
-246.78
-182.543
-106.592
-25.0837
55.1938
127.578
186.28
227.019
247.459
247.412
228.761
195.159
151.513
103.366
56.2287
14.9647
-16.7037
-36.5207
-43.8221
-39.4618
-25.5663
-5.1599
18.282
41.2904
60.8148
74.5446
81.109
80.1431
72.2252
58.707
41.4662
22.6207
4.2434
-11.8907
-24.4946
-32.8824
-36.9988
-37.3691
-34.9837
-31.1375
-27.2463
-24.6654
-24.5306
-27.6388
-34.3797
-44.7197
-58.2375
-74.2009
-91.6719
-109.625
-127.065
-143.124
-157.141
-168.699
-177.636
-184.024
-188.115
-190.28
-190.935
-190.475
-189.213
-187.345
-184.928
-181.886
-178.034
-173.114
-166.841
-158.957
-149.274
-137.716
-124.344
-109.367
-93.1419
-76.1473
-58.9532
-42.1748
-26.4218
-12.2469
-0.0992817
9.71304
17.0464
21.9293
24.5533
25.2482
24.4454
22.6324
20.304
17.9167
15.8491
14.3737
13.6425
13.686
14.4253
15.6954
17.2751
18.9202
20.3953
21.502
22.0987
22.1124
21.5407
20.4452
18.9384
17.1652
15.283
13.4418
11.7676
10.3493
9.2324
8.41747
7.86463
7.50227
7.23877
6.97556
6.61973
6.09481
5.34845
4.35649
3.12314
1.67757
0.0676395
-1.64826
-3.41018
-5.16523
-6.87479
-8.51965
-10.1024
-11.6472
-13.197
-14.8087
-16.5477
-18.4809
-20.6714
-23.1723
-26.022
-29.2399
-32.8216
-36.7348
-40.9147
-45.2587
-49.6234
-53.8221
-57.6273
-60.7786
-62.9972
-64.0074
-63.564
-61.4816
-57.6632
-52.1227
-44.9971
-36.5462
-27.1366
-17.212
-7.25172
2.27797
10.9733
18.5366
24.8077
29.7773
33.5785
36.4557
38.7105
40.6294
42.3978
44.01
45.1867
45.3143
43.4237
38.225
28.2114
11.839
-12.2257
-44.8148
-85.965
-134.674
-188.767
-244.915
-298.846
-345.725
-380.693
-399.469
-398.944
-377.676
-336.189
-277.037
-204.609
-124.683
-43.8084
31.4213
95.1004
142.649
171.283
180.248
170.819
146.047
110.314
68.7619
26.6628
-11.1837
-40.9514
-60.1371
-67.7264
-64.1701
-51.1884
-31.4434
-8.12888
15.4642
36.351
52.1803
61.4516
63.6077
59.0029
48.7633
34.5667
18.3786
2.17902
-12.2839
-23.6863
-31.2489
-34.7782
-34.6309
-31.6139
-26.8393
-21.5574
-16.9893
-14.1817
-13.8983
-16.5572
-22.2178
-30.6116
-41.2087
-53.3065
-66.1268
-78.9094
-90.9879
-101.844
-111.135
-118.695
-124.511
-128.691
-131.413
-132.881
-133.282
-132.753
-131.362
-129.105
-125.91
-121.66
-116.221
-109.473
-101.344
-91.845
-81.0828
-69.2757
-56.7468
-43.9045
-31.2111
-19.1418
-8.14068
1.42288
9.28891
15.3305
19.5625
22.1344
23.3086
23.4281
22.876
22.0341
21.2439
20.7753
20.8061
21.4134
22.5772
24.1943
26.1012
28.1001
29.9867
31.5753
32.7188
33.321
33.3422
32.7963
31.7429
30.2739
28.4995
26.5334
24.4809
22.4295
20.4444
18.5669
16.8167
15.1964
13.6964
12.301
10.992
9.75219
8.56689
7.42365
6.31149
5.21945
4.13509
3.04318
1.92479
0.756531
-0.490206
-1.85011
-3.36484
-5.08355
-7.0625
-9.36312
-12.048
-15.1748
-18.7883
-22.9119
-27.5393
-32.6286
-38.0994
-43.8335
-49.6809
-55.4683
-61.0102
-66.1213
-70.6277
-74.3757
-77.2387
-79.1194
-79.9506
-79.693
-78.3326
-75.8784
-72.3613
-67.8349
-62.3778
-56.0963
-49.1275
-41.6399
-33.8311
-25.9209
-18.1409
-10.7197
-3.86623
2.24712
7.49993
11.8348
15.263
17.8631
19.773
21.1746
22.272
23.2633
24.3066
25.4803
26.7388
27.8659
28.432
27.7611
24.922
18.7556
7.95384
-8.80266
-32.6467
-64.2827
-103.731
-150.103
-201.457
-254.781
-306.145
-351.011
-384.7
-402.94
-402.444
-381.406
-339.862
-279.825
-205.187
-121.369
-34.7815
47.8616
120.266
177.235
215.209
232.606
229.921
209.58
175.578
132.946
87.1364
43.3908
6.17297
-21.2652
-37.1442
-41.2242
-34.6847
-19.846
0.220323
22.1356
42.6538
59.0424
69.3647
72.6355
68.8456
58.8614
44.2269
26.9005
8.96633
-7.64181
-21.3701
-31.2043
-36.7471
-38.2098
-36.3305
-32.234
-27.2572
-22.7663
-19.9864
-19.866
-22.9873
-29.53
-39.2866
-51.7219
-66.0646
-81.4166
-96.8643
-111.578
-124.89
-136.34
-145.694
-152.925
-158.181
-161.722
-163.863
-164.909
-165.103
-164.591
-163.401
-161.45
-158.556
-154.478
-148.958
-141.767
-132.75
-121.867
-109.22
-95.0596
-79.7875
-63.9274
-48.0899
-32.9214
-19.0476
-7.01639
2.75283
10.0082
14.6871
16.919
17.008
15.3982
12.6256
9.26263
5.86092
2.89996
0.746361
-0.372148
-0.375885
0.674203
2.59852
5.13171
7.96175
10.7704
13.27
15.2331
16.5117
17.0458
16.8597
16.0501
14.7658
13.1842
11.4868
9.83692
8.36261
7.14551
6.21689
5.5605
5.121
4.81642
4.55263
4.23784
3.79541
3.17373
2.35231
1.34383
0.192585
-1.03044
-2.2348
-3.31946
-4.18242
-4.73043
-4.88817
-4.60648
-3.86931
-2.69903
-1.15978
0.641518
2.55708
4.40361
5.97153
7.0381
7.38374
6.81056
5.16092
2.33421
-1.70068
-6.89871
-13.1391
-20.2325
-27.9351
-35.966
-44.0279
-51.8259
-59.0843
-65.5581
-71.0381
-75.3512
-78.3563
-79.9386
-80.0046
-78.4826
-75.3272
-70.5306
-64.1373
-56.2607
-47.0951
-36.922
-26.1051
-15.074
-4.29614
5.75945
14.6635
22.0665
27.7331
31.565
33.6107
34.06
33.2238
31.5022
29.3444
27.2028
25.4855
24.5084
24.4486
25.2991
26.8255
28.5303
29.6275
29.0418
25.4427
17.3293
3.17436
-18.3699
-48.2187
-86.5835
-132.726
-184.795
-239.785
-293.679
-341.756
-379.065
-401.014
-403.975
-385.839
-346.408
-287.573
-213.229
-128.928
-41.3123
42.6014
116.19
173.949
212.075
228.834
224.684
202.127
165.334
119.599
70.6818
24.1441
-15.248
-43.9915
-60.1297
-63.3363
-54.8014
-36.9519
-13.0519
13.259
38.4291
59.403
73.9335
80.7664
79.6885
71.4474
57.5618
40.0588
21.1737
3.05321
-12.5017
-24.2278
-31.5075
-34.388
-33.517
-30.0105
-25.2744
-20.8058
-17.9995
-17.9825
-21.4942
-28.8216
-39.7939
-53.831
-70.0362
-87.318
-104.525
-120.575
-134.568
-145.866
-154.136
-159.359
-161.794
-161.924
-160.371
-157.811
-154.886
-152.128
-149.904
-148.381
-147.518
-147.08
-146.679
-145.822
-143.977
-140.636
-135.378
-127.92
-118.157
-106.179
-92.2685
-76.8818
-60.6065
-44.1093
-28.0748
-13.1441
0.140729
11.38
20.3436
26.9792
31.4025
33.8702
34.7405
34.4272
33.3513
31.8971
30.3782
29.0144
27.9238
27.1275
26.566
26.124
25.6591
25.0303
24.123
22.8679
21.2504
19.3125
17.1459
14.8792
12.6605
10.6385
8.9451
7.68045
6.90262
6.62295
6.80693
7.38006
8.23777
9.25789
10.3141
11.289
12.0845
12.63
12.8867
12.8476
12.534
11.9899
11.2729
10.4457
9.56737
8.68619
7.83553
7.03204
6.27699
5.55973
4.86257
4.16576
3.45161
2.70669
1.92181
1.08957
0.200028
-0.764774
-1.83673
-3.06692
-4.52934
-6.32238
-8.56721
-11.4026
-14.9764
-19.4328
-24.898
-31.4628
-39.1661
-47.9792
-57.7936
-68.4136
-79.5558
-90.856
-101.885
-112.171
-121.229
-128.593
-133.854
-136.687
-136.88
-134.355
-129.176
-121.547
-111.805
-100.396
-87.843
-74.717
-61.5922
-49.009
-37.4372
-27.2452
-18.6778
-11.8443
-6.71708
-3.14167
-0.858045
0.468761
1.20865
1.71844
2.28668
3.07263
4.04239
4.90754
5.07585
3.62762
-0.66539
-9.26156
-23.6999
-45.3784
-75.2773
-113.66
-159.804
-211.82
-266.617
-320.047
-367.241
-403.114
-422.976
-423.168
-401.621
-358.252
-295.132
-216.373
-127.759
-36.1453
51.2763
127.77
187.789
227.554
245.417
241.958
219.82
183.31
137.822
89.1752
42.9361
3.81976
-24.7662
-40.9898
-44.6566
-37.0735
-20.7477
1.03049
24.6583
46.6855
64.2156
75.2021
78.6125
74.4531
63.6642
47.9116
29.3092
10.1135
-7.57003
-22.0331
-32.1394
-37.4128
-38.0361
-34.7717
-28.8184
-21.6312
-14.727
-9.50243
-7.08361
-8.22152
-13.2412
-22.0436
-34.1544
-48.8084
-65.0548
-81.8697
-98.2617
-113.359
-126.474
-137.131
-145.079
-150.27
-152.825
-152.987
-151.074
-147.432
-142.4
-136.278
-129.314
-121.694
-113.545
-104.945
-95.9357
-86.5399
-76.7793
-66.6882
-56.3242
-45.7728
-35.1481
-24.588
-14.2481
-4.29299
5.11121
13.8043
21.6383
28.4824
34.2281
38.7939
42.1297
44.2209
45.0921
44.8087
43.4766
41.2388
38.2692
34.7633
30.9272
26.9656
23.071
19.4145
16.1405
13.3638
11.1702
9.61805
8.74082
8.54757
9.02195
10.1187
11.7587
13.8236
16.1527
18.5435
20.7575
22.5335
23.6063
23.7309
22.7095
20.4171
16.8238
12.0085
6.16367
-0.412272
-7.334
-14.1586
-20.4225
-25.6823
-29.5548
-31.7519
-32.1066
-30.5859
-27.2914
-22.4453
-16.3651
-9.43007
-2.04341
5.40545
12.5732
19.1864
25.0536
30.0654
34.1829
37.4172
39.8053
41.3865
42.1842
42.1963
41.3964
39.7428
37.1952
33.7325
29.3683
24.1605
18.2121
11.6635
4.67647
-2.58483
-9.974
-17.378
-24.7261
-31.9888
-39.1693
-46.2862
-53.3525
-60.354
-67.2308
-73.8644
-80.0746
-85.6247
-90.2367
-93.6136
-95.4673
-95.5487
-93.6763
-89.7604
-83.8199
-75.9903
-66.521
-55.7627
-44.146
-32.1529
-20.2834
-9.02144
1.19925
10.0239
17.2002
22.5932
26.1917
28.105
28.5495
27.8252
26.2814
24.2704
22.0899
19.9148
17.7235
15.2252
11.8026
6.48746
-2.01235
-15.2147
-34.686
-61.7874
-97.3711
-141.467
-193.02
-249.744
-308.137
-363.7
-411.347
-445.969
-463.077
-459.439
-433.599
-386.198
-320.038
-239.875
-151.949
-63.3159
18.9261
88.4185
140.231
171.369
181.037
170.642
143.532
104.523
59.2876
13.6665
-26.9852
-58.3578
-77.5856
-83.448
-76.3662
-58.2108
-31.9578
-1.24698
30.0958
58.5152
81.1073
95.8894
101.935
99.3744
89.2688
73.3918
53.9474
33.2673
13.5246
-3.50363
-16.6032
-25.205
-29.3837
-29.7812
-27.4716
-23.7922
-20.1608
-17.9045
-18.1165
-21.5543
-28.5854
-39.1809
-52.9519
-69.2194
-87.1072
-105.644
-123.867
-140.906
-156.059
-168.834
-178.97
-186.432
-191.378
-194.116
-195.044
-194.589
-193.147
-191.032
-188.444
-185.446
-181.969
-177.829
-172.758
-166.453
-158.623
-149.041
-137.588
-124.289
-109.332
-93.0706
-76.0049
-58.7491
-41.9817
-26.3862
-12.59
-1.1065
7.71246
13.7078
16.9251
17.6056
16.1575
13.1115
9.066
4.62729
0.353976
-3.29032
-5.96986
-7.49261
-7.80826
-6.98993
-5.20275
-2.66426
0.398329
3.78823
7.37201
11.1012
15.0207
19.2624
24.0263
29.55
36.0716
43.7901
52.8278
63.2009
74.8001
87.3868
100.603
113.998
127.064
139.282
150.173
159.34
166.508
171.55
174.497
175.531
174.964
173.196
170.672
167.828
165.037
162.568
160.55
158.957
157.611
156.203
154.331
151.548
147.419
141.576
133.762
123.869
111.955
98.243
83.1043
67.0253
50.5632
34.2949
18.7655
4.44121
-8.32822
-19.3335
-28.5136
-35.9476
-41.8301
-46.4349
-50.0698
-53.0296
-55.5516
-57.7806
-59.7483
-61.3695
-62.4572
-62.7537
-61.9748
-59.8586
-56.2147
-50.9637
-44.1623
-36.0109
-26.8412
-17.0868
-7.23957
2.20065
10.778
18.1263
24.004
28.3134
31.1015
32.543
32.9046
32.4925
31.5869
30.3653
28.8224
26.694
23.3981
18.0085
9.28067
-4.25594
-24.1267
-51.6671
-87.7247
-132.347
-184.515
-241.976
-301.239
-357.768
-406.367
-441.734
-459.114
-454.96
-427.501
-377.12
-306.479
-220.36
-125.217
-28.518
62.0688
139.511
198.178
234.434
246.983
236.926
207.547
163.845
111.897
58.1258
8.58094
-31.6998
-59.162
-72.0047
-70.2285
-55.4746
-30.6911
0.320087
33.4122
64.5931
90.4585
108.516
117.369
116.762
107.484
91.1643
69.9986
46.4304
22.8451
1.30063
-16.673
-30.192
-39.0474
-43.6516
-44.9171
-44.0891
-42.5564
-41.6662
-42.5636
-46.0744
-52.6377
-62.2939
-74.7212
-89.3109
-105.268
-121.72
-137.823
-152.849
-166.247
-177.673
-186.995
-194.263
-199.668
-203.483
-206.001
-207.479
-208.093
-207.908
-206.871
-204.816
-201.495
-196.62
-189.91
-181.139
-170.184
-157.059
-141.93
-125.12
-107.092
-88.4179
-69.7348
-51.6949
-34.9117
-19.9111
-7.09035
3.30941
11.2163
16.7241
20.0733
21.6197
21.7939
21.0564
19.8529
18.5752
17.5303
16.9214
16.8415
17.2783
18.1314
19.2358
20.3908
21.3895
22.0463
22.2184
21.8204
20.8313
19.2925
17.2994
14.9868
12.512
10.0359
7.706
5.64193
3.92598
2.59813
1.65663
1.06313
0.751486
0.638929
0.637983
0.667712
0.662927
0.580405
0.401553
0.131437
-0.205473
-0.572056
-0.926765
-1.2321
-1.46216
-1.60816
-1.68142
-1.71327
-1.75231
-1.85938
-2.10133
-2.54447
-3.24903
-4.26536
-5.63257
-7.37962
-9.52845
-12.098
-15.1082
-18.5825
-22.5473
-27.029
-32.047
-37.604
-43.6742
-50.1907
-57.0342
-64.0243
-70.9143
-77.3938
-83.0975
-87.6238
-90.562
-91.5274
-90.2007
-86.369
-79.9608
-71.0713
-59.972
-47.1027
-33.0432
-18.4694
-4.09504
9.391
21.3871
31.4316
39.2404
44.7244
47.9848
49.2875
49.0201
47.6346
45.5836
43.2526
40.8952
38.5722
36.1019
33.0238
28.5862
21.7669
11.3385
-4.01149
-25.5025
-54.0332
-89.927
-132.687
-180.81
-231.715
-281.816
-326.773
-361.909
-382.743
-385.586
-368.094
-329.714
-271.918
-198.196
-113.789
-25.186
60.5596
136.591
197.002
237.483
255.764
251.82
227.805
187.734
136.96
81.5239
27.4517
-19.8984
-56.3774
-79.4081
-88.1401
-83.3936
-67.414
-43.4806
-15.4299
12.8434
37.8461
56.8538
68.1507
71.1246
66.2191
54.7625
38.7058
20.3115
1.83568
-14.7565
-28.0102
-37.114
-41.9391
-42.9888
-41.2724
-38.1268
-35.0127
-33.3125
-34.1543
-38.2828
-45.987
-57.0903
-70.9989
-86.7963
-103.371
-119.559
-134.279
-146.651
-156.08
-162.302
-165.387
-165.7
-163.834
-160.516
-156.506
-152.499
-149.036
-146.44
-144.783
-143.881
-143.326
-142.539
-140.851
-137.594
-132.193
-124.247
-113.595
-100.355
-84.9212
-67.9416
-50.2545
-32.8055
-16.5507
-2.35646
9.08956
17.348
22.2682
23.9962
22.949
19.7611
15.2072
10.1151
5.27561
1.36289
-1.12775
-1.91745
-0.95439
1.6021
5.42004
10.0496
14.9866
19.7356
23.866
27.055
29.1121
29.9859
29.7534
28.595
26.7599
24.5281
22.1734
19.9318
17.9797
16.422
15.291
14.5547
14.1314
13.9085
13.7623
13.5757
13.2527
12.7273
11.9678
10.9752
9.77896
8.42863
6.98479
5.50972
4.05885
2.67383
1.37758
0.171524
-0.964976
-2.07299
-3.21049
-4.44702
-5.85713
-7.51287
-9.47631
-11.7925
-14.4841
-17.5473
-20.9503
-24.6339
-28.513
-32.4801
-36.4094
-40.1609
-43.5859
-46.5322
-48.851
-50.4045
-51.074
-50.77
-49.4409
-47.0809
-43.7362
-39.5064
-34.5422
-29.0379
-23.2188
-17.3253
-11.5942
-6.23959
-1.43567
2.69728
6.10173
8.78584
10.82
12.327
13.4655
14.4068
15.3043
16.254
17.2485
18.1231
18.5038
17.7608
14.9862
9.00786
-1.54208
-18.0933
-41.9359
-73.9659
-114.406
-162.548
-216.578
-273.523
-329.373
-379.384
-418.547
-442.161
-446.455
-429.137
-389.812
-330.179
-253.966
-166.612
-74.7242
14.6252
94.6612
159.635
205.423
229.924
233.206
217.395
186.33
145.038
99.0979
53.9833
14.4652
-15.8597
-34.8641
-41.9865
-38.1335
-25.4157
-6.76435
14.5134
35.1808
52.4632
64.3426
69.7268
68.4854
61.3613
49.7797
35.5916
20.788
7.22597
-3.60149
-10.7262
-13.7829
-13.0028
-9.13194
-3.29227
3.19192
8.97572
12.8604
13.9252
11.6127
5.75975
-3.42018
-15.398
-29.4185
-44.605
-60.0621
-74.9672
-88.6376
-100.572
-110.46
-118.177
-123.742
-127.284
-128.993
-129.08
-127.743
-125.152
-121.44
-116.713
-111.061
-104.578
-97.3761
-89.6001
-81.4273
-73.0635
-64.7275
-56.6302
-48.9501
-41.8093
-35.2543
-29.2455
-23.6567
-18.288
-12.8883
-7.18794
-0.935104
6.06734
13.9306
22.6586
32.139
42.15
52.3793
62.456
71.9888
80.6066
87.9965
93.9335
98.3
101.091
102.405
102.426
101.391
99.5583
97.1718
94.432
91.4748
88.362
85.0819
81.562
77.6888
73.3324
68.3714
62.7149
56.319
49.1943
41.4068
33.0701
24.3332
15.3641
6.3332
-2.6008
-11.3028
-19.6677
-27.6224
-35.1239
-42.1531
-48.7076
-54.7924
-60.4116
-65.5603
-70.2183
-74.3465
-77.8852
-80.7565
-82.8696
-84.1303
-84.4532
-83.7759
-82.0748
-79.3782
-75.7772
-71.4295
-66.5569
-61.4323
-56.3602
-51.6478
-47.5731
-44.3509
-42.1029
-40.8343
-40.4219
-40.6165
-41.0582
-41.3062
-40.8789
-39.301
-36.1509
-31.1058
-23.9772
-14.7344
-3.51361
9.38803
23.532
38.3698
53.2822
67.6247
80.7733
92.1699
101.363
108.038
112.042
113.393
112.272
109.003
104.019
97.8084
90.8475
83.5247
76.0544
68.3939
60.1732
50.655
38.743
23.0549
2.07329
-25.6285
-61.1017
-104.715
-155.875
-212.835
-272.643
-331.27
-383.926
-425.541
-451.356
-457.549
-441.792
-403.667
-344.865
-269.121
-181.898
-89.8436
-0.0874418
80.5201
146.143
192.565
217.599
221.249
205.611
174.539
133.127
87.0687
41.99
2.83076
-26.6538
-44.2183
-49.2514
-42.6987
-26.8084
-4.74266
19.8862
43.4944
62.9589
75.9563
81.1725
78.3712
68.3235
52.6199
33.3996
13.036
-6.17632
-22.297
-33.9454
-40.4182
-41.7138
-38.4686
-31.8224
-23.2367
-14.2928
-6.49596
-1.10844
0.971345
-0.724535
-6.22355
-15.1536
-26.8243
-40.3341
-54.6885
-68.9139
-82.1545
-93.7442
-103.247
-110.468
-115.43
-118.34
-119.524
-119.369
-118.259
-116.523
-114.394
-111.988
-109.299
-106.213
-102.536
-98.0304
-92.4614
-85.6349
-77.4332
-67.8372
-56.9359
-44.9213
-32.0719
-18.7273
-5.25833
7.96268
20.5896
32.3241
42.9303
52.2425
60.1662
66.6731
71.7927
75.6008
78.2065
79.7398
80.3396
80.1437
79.2802
77.8624
75.9845
73.7213
71.1282
68.2446
65.0975
61.7071
58.0923
54.2774
50.2969
46.2001
42.0528
37.9373
33.9487
30.1891
26.7597
23.7516
21.2361
19.2566
17.8227
16.9071
16.4468
16.3468
16.4888
16.7403
16.9663
17.0401
16.8537
16.3248
15.4024
14.0679
12.3342
10.2418
7.85276
5.24426
2.50075
-0.292791
-3.05697
-5.72276
-8.23499
-10.5547
-12.6607
-14.551
-16.2432
-17.7754
-19.2052
-20.6088
-22.0769
-23.7097
-25.6096
-27.8739
-30.5861
-33.809
-37.5787
-41.9016
-46.7528
-52.0763
-57.787
-63.7719
-69.8912
-75.9787
-81.8414
-87.2589
-91.9859
-95.7574
-98.2998
-99.3481
-98.6687
-96.0865
-91.5118
-84.9645
-76.5895
-66.6607
-55.5709
-43.806
-31.9075
-20.4252
-9.86637
-0.647831
6.94294
12.7727
16.8697
19.4132
20.7049
21.1276
21.0939
20.9896
21.1172
21.6399
22.5307
23.5261
24.0904
23.3935
20.315
13.4852
1.37685
-17.5419
-44.5946
-80.6375
-125.783
-179.157
-238.728
-301.287
-362.573
-417.599
-461.121
-488.223
-494.935
-478.788
-439.237
-377.87
-298.359
-206.162
-107.993
-11.1381
77.3097
151.188
205.887
238.785
249.437
239.52
212.537
173.334
127.496
80.7058
38.1285
3.91087
-19.171
-29.8783
-28.4901
-16.6152
3.12757
27.5099
53.123
76.7802
95.8505
108.491
113.76
111.618
102.818
88.7213
71.0649
51.7128
32.4253
14.669
-0.513848
-12.5697
-21.4318
-27.4618
-31.3475
-33.9753
-36.2945
-39.1892
-43.3732
-49.3151
-57.1994
-66.9244
-78.1331
-90.2701
-102.657
-114.574
-125.342
-134.393
-141.319
-145.911
-148.157
-148.233
-146.469
-143.295
-139.195
-134.638
-130.036
-125.698
-121.797
-118.366
-115.295
-112.353
-109.223
-105.542
-100.947
-95.1288
-87.8709
-79.0836
-68.8239
-57.299
-44.8533
-31.9395
-19.0779
-6.80776
4.36364
14.008
21.8142
27.6143
31.3926
33.2806
33.5355
32.5081
30.6021
28.2301
25.7719
23.5378
21.7423
20.49
19.7744
19.4903
19.457
19.4493
19.2323
18.5958
17.3833
15.5132
12.9891
9.89864
6.40203
2.71157
-0.934047
-4.29749
-7.16878
-9.38649
-10.8518
-11.5342
-11.4693
-10.749
-9.5068
-7.89985
-6.09055
-4.22981
-2.44373
-0.824695
0.572606
1.73052
2.66388
3.41263
4.03276
4.58686
5.13522
5.72816
6.40043
7.16754
8.02438
8.94587
9.8894
10.7987
11.6086
12.2505
12.6581
12.7718
12.5436
11.9396
10.9421
9.54968
7.77559
5.6451
3.1912
0.449577
-2.54666
-5.77165
-9.20986
-12.8569
-16.7172
-20.7993
-25.1078
-29.6347
-34.3493
-39.1909
-44.0632
-48.8325
-53.3317
-57.3679
-60.7347
-63.227
-64.6572
-64.8709
-63.7601
-61.2733
-57.4215
-52.2791
-45.9807
-38.7138
-30.7079
-22.2205
-13.5221
-4.87977
3.45849
11.2782
18.4105
24.7407
30.2139
34.836
38.6701
41.8286
44.4585
46.7211
48.7622
50.674
52.4468
53.9131
54.6883
54.1197
51.2564
44.8597
33.4719
15.5565
-10.287
-45.0496
-89.0125
-141.47
-200.536
-263.087
-324.891
-380.922
-425.852
-454.659
-463.273
-449.163
-411.773
-352.739
-275.832
-186.64
-92.0087
0.678272
84.2912
152.715
201.482
228.202
232.739
217.123
185.225
142.226
93.986
46.3574
4.55656
-27.3539
-46.8122
-52.9079
-46.3336
-29.1592
-4.47041
24.0761
52.72
78.0326
97.2723
108.628
111.331
105.64
92.707
74.3571
52.8137
30.4036
9.28165
-8.79889
-22.6465
-31.7113
-36.0829
-36.4152
-33.7916
-29.5558
-25.1269
-21.826
-20.7303
-22.5718
-27.6865
-36.0155
-47.1518
-60.4232
-74.9949
-89.98
-104.54
-117.971
-129.753
-139.584
-147.372
-153.206
-157.314
-160.001
-161.591
-162.375
-162.566
-162.271
-161.485
-160.095
-157.901
-154.651
-150.076
-143.936
-136.049
-126.33
-114.809
-101.638
-87.0914
-71.5482
-55.4686
-39.3593
-23.7357
-9.08283
4.18062
15.7324
25.3672
33.0068
38.6982
42.6013
44.9665
46.1071
46.3667
46.0877
45.5821
45.1083
44.8559
44.9379
45.3924
46.1907
47.2516
48.4588
49.6788
50.7785
51.6392
52.1664
52.2953
51.9921
51.2511
50.0897
48.5419
46.6512
44.4646
42.0267
39.376
36.5424
33.5463
30.3982
27.1006
23.65
20.0403
16.2663
12.3273
8.23166
3.99876
-0.338502
-4.73364
-9.12811
-13.4546
-17.6418
-21.6205
-25.3296
-28.723
-31.7745
-34.4831
-36.8769
-39.0152
-40.9899
-42.9232
-44.9635
-47.2761
-50.0306
-53.3832
-57.457
-62.321
-67.9707
-74.3132
-81.1599
-88.2269
-95.1472
-101.49
-106.793
-110.593
-112.469
-112.075
-109.179
-103.687
-95.6593
-85.318
-73.0346
-59.3097
-44.7386
-29.9673
-15.6436
-2.36691
9.35791
19.1579
26.8172
32.2874
35.6803
37.2446
37.3251
36.306
34.5406
32.27
29.5376
26.1089
21.4101
14.505
4.12969
-11.1979
-32.9848
-62.494
-100.427
-146.604
-199.704
-257.136
-315.075
-368.721
-412.747
-441.902
-451.698
-439.06
-402.857
-344.207
-266.518
-175.218
-77.2319
19.7521
108.116
181.146
233.744
262.951
268.19
251.235
215.903
167.526
112.275
56.4359
5.71243
-35.3452
-63.738
-78.2019
-79.1735
-68.5608
-49.3622
-25.1939
0.208745
23.4528
41.8595
53.7091
58.3407
56.1108
48.2276
36.4968
23.0172
9.86983
-1.1609
-8.8042
-12.4368
-12.1252
-8.57964
-3.02963
2.95717
7.68986
9.57553
7.32101
0.0922309
-12.386
-29.7997
-51.2872
-75.5456
-100.989
-125.938
-148.816
-168.329
-183.606
-194.28
-200.501
-202.887
-202.41
-200.243
-197.591
-195.524
-194.833
-195.938
-198.851
-203.184
-208.227
-213.047
-216.622
-217.97
-216.27
-210.958
-201.788
-188.852
-172.564
-153.608
-132.863
-111.31
-89.9356
-69.6389
-51.1553
-35.0007
-21.4406
-10.4878
-1.92602
4.64317
9.73584
13.9111
17.6947
21.5105
25.6262
30.1209
34.8774
39.6009
43.8606
47.1498
48.9585
48.8475
46.5175
41.8653
35.0195
26.3525
16.4668
6.15601
-3.65683
-11.9988
-17.938
-20.678
-19.6483
-14.5808
-5.56488
6.92738
22.0528
38.648
55.3194
70.5668
82.9307
91.1478
94.2987
91.9277
84.1193
71.5172
55.2799
36.9736
18.4128
1.46543
-12.1538
-21.0775
-24.4428
-21.9921
-14.1043
-1.75363
13.6012
30.1832
46.0992
59.5542
69.052
73.5573
72.6033
66.3294
55.4508
41.1634
24.9984
8.6477
-6.22131
-18.1381
-25.9711
-29.0261
-27.0933
-20.442
-9.76844
3.89427
19.2912
35.0715
49.9135
62.6375
72.2982
78.2526
80.1981
78.1808
72.5699
64.0014
53.2888
41.3084
28.8652
16.5522
4.62326
-7.10276
-19.2803
-32.9998
-49.6616
-70.7586
-97.5865
-130.914
-170.666
-215.681
-263.603
-310.957
-353.423
-386.295
-405.067
-406.064
-387.024
-347.527
-289.202
-215.672
-132.229
-45.2933
38.2838
111.972
170.275
209.303
227.156
224.054
202.224
165.568
119.151
68.5992
19.4737
-23.3063
-55.9223
-75.958
-82.5236
-76.2053
-58.8634
-33.318
-2.96762
28.6087
58.0237
82.3911
99.5496
108.189
107.878
99.008
82.6637
60.4464
34.2715
6.16231
-21.9419
-48.3469
-71.7244
-91.1866
-106.314
-117.138
-124.091
-127.917
-129.577
-130.126
-130.606
-131.937
-134.824
-139.693
-146.653
-155.491
-165.696
-176.531
-187.107
-196.5
-203.86
-208.52
-210.089
-208.51
-204.088
-197.457
-189.512
-181.292
-173.841
-168.057
-164.549
-163.53
-164.763
-167.56
-170.859
-173.348
-173.639
-170.463
-162.851
-150.288
-132.809
-111.022
-86.057
-59.4506
-32.9702
-8.41479
12.5903
28.7757
39.3659
44.1553
43.5178
38.3479
29.9448
19.8527
9.67962
0.913663
-5.2392
-7.97972
-6.98806
-2.43767
5.04957
14.5007
24.7283
34.4904
42.6522
48.3303
51.0026
50.568
47.3505
42.0485
35.6337
29.2159
23.8897
20.5841
19.9343
22.193
27.1928
34.3651
42.8125
51.424
59.0182
64.494
66.9693
65.8885
61.0865
52.8013
41.6356
28.4745
14.3722
0.423289
-12.363
-23.17
-31.4496
-36.9593
-39.7579
-40.1645
-38.6881
-35.9398
-32.5395
-29.0313
-25.8148
-23.1028
-20.9062
-19.048
-17.2018
-14.949
-11.8468
-7.4973
-1.60974
5.95107
15.1364
25.707
37.2485
49.2068
60.9388
71.7724
81.0694
88.2844
93.0113
95.0126
94.2262
90.7474
84.7864
76.6066
66.4514
54.4737
40.6823
24.9215
6.89789
-13.7386
-37.2634
-63.7082
-92.6829
-123.224
-153.709
-181.873
-204.943
-219.896
-223.821
-214.324
-189.935
-150.447
-97.1234
-32.7308
38.6168
111.802
181.198
241.256
287.109
315.12
323.299
311.528
281.575
236.894
182.224
123.064
65.0628
13.4234
-27.626
-55.2236
-68.0948
-66.5839
-52.5052
-28.8412
0.664806
31.9692
61.1831
84.9713
100.855
107.395
104.237
92.0454
72.3258
47.1765
19.004
-9.76497
-36.9419
-60.7802
-80.1079
-94.3836
-103.677
-108.589
-110.116
-109.498
-108.052
-107.016
-107.421
-110.001
-115.143
-122.873
-132.895
-144.645
-157.373
-170.239
-182.395
-193.075
-201.654
-207.695
-210.966
-211.434
-209.246
