27.84
31.182
34.5049
37.5383
39.9913
41.5857
42.0901
41.3513
39.3178
36.0515
31.7268
26.6146
21.0559
15.426
10.0951
5.39031
1.56339
-1.23231
-2.9527
-3.66127
-3.51564
-2.74442
-1.61727
-0.411696
0.620528
1.2844
1.46847
1.16572
0.487172
-0.333813
-0.948868
-0.916036
0.26307
3.09047
8.00595
15.3139
25.1111
37.2267
51.1853
66.2046
81.2328
95.0292
106.28
113.742
116.387
113.541
104.987
91.0147
72.4216
50.4427
26.6343
2.71492
-19.612
-38.8335
-53.7775
-63.7214
-68.4468
-68.2344
-63.804
-56.2075
-46.6918
-36.5485
-26.9692
-18.9246
-13.0786
-9.74545
-8.8928
-10.1846
-13.0568
-16.8125
-20.7238
-24.1269
-26.499
-27.5101
-27.0446
-25.1942
-22.2246
-18.5247
-14.5441
-10.7305
-7.47255
-5.05688
-3.64164
-3.24893
-3.77486
-5.01413
-6.69451
-8.51592
-10.1889
-11.4679
-12.1753
-12.2155
-11.576
-10.3181
-8.55734
-6.437
-4.09774
-1.64756
0.863207
3.45794
6.23752
9.37034
13.0692
17.558
23.032
29.6194
37.3477
46.1225
55.7212
65.8037
75.9396
85.6478
94.4447
101.894
107.653
111.507
113.39
113.388
111.726
108.735
104.815
100.385
95.8373
91.4984
87.5957
84.2435
81.4406
79.0822
76.9836
74.911
72.6162
69.8702
66.4925
62.3727
57.4826
51.8778
45.69
39.1102
32.3666
25.6994
19.3357
13.4669
8.23246
3.71061
-0.0834556
-3.19135
-5.69917
-7.72081
-9.37924
-10.7884
-12.0378
-13.182
-14.2352
-15.1729
-15.938
-16.4525
-16.6307
-16.3942
-15.6845
-14.4735
-12.7694
-10.6171
-8.09471
-5.30552
-2.36775
0.596729
3.47279
6.16014
8.57833
10.6685
12.392
13.7273
14.6658
15.2073
15.3574
15.1256
14.5258
13.5777
12.3093
10.759
8.97779
7.0293
4.98833
2.93763
0.962728
-0.854357
-2.4421
-3.74617
-4.73504
-5.40374
-5.77506
-5.89791
-5.8429
-5.69555
-5.54768
-5.48833
-5.59492
-5.92608
-6.51677
-7.37612
-8.48817
-9.81473
-11.2998
-12.8745
-14.462
-15.9811
-17.3501
-18.4886
-19.3205
-19.7759
-19.7943
-19.3287
-18.3488
-16.8458
-14.8354
-12.36
-9.48834
-6.31342
-2.94756
0.484461
3.85371
7.03597
9.92018
12.4156
14.457
16.0073
17.0579
17.6264
17.7529
17.4947
16.9206
16.1052
15.1232
14.0451
12.9335
11.8397
10.8028
9.84862
8.98972
8.2267
7.5499
6.94175
6.37961
5.83888
5.29601
4.73131
4.13102
3.48854
2.80447
2.08546
1.34204
0.585941
-0.172041
-0.92208
-1.65167
-2.33691
-2.92834
-3.33295
-3.39555
-2.88488
-1.49051
1.16406
5.48812
11.8702
20.6081
31.8303
45.4222
60.9708
77.7416
94.7003
110.582
124.004
133.614
138.253
137.105
129.823
116.595
98.1615
75.7494
50.9586
25.5962
1.48817
-19.7109
-36.684
-48.5759
-55.0598
-56.3417
-53.1052
-46.4049
-37.5255
-27.8255
-18.5838
-10.8682
-5.43918
-2.69683
-2.67472
-5.07609
-9.34499
-14.7606
-20.5417
-25.9471
-30.3618
-33.3583
-34.73
-34.4934
-32.8633
-30.2058
-26.9776
-23.6598
-20.6951
-18.4361
-17.1099
-16.8004
-17.4508
-18.8811
-20.8189
-22.9359
-24.8883
-26.3527
-27.057
-26.802
-25.4737
-23.0454
-19.5726
-15.1802
-10.0461
-4.3825
1.58285
7.62396
13.5312
19.1225
24.252
28.8142
32.7467
36.0301
38.6855
40.7708
42.3749
43.6102
44.6037
45.4861
46.3817
47.3972
48.6126
50.0746
51.7934
53.7422
55.861
58.0623
60.2383
62.2681
64.0252
65.3833
66.2218
66.4307
65.9151
64.6001
62.4358
59.4017
55.5114
50.8158
45.4033
39.3995
32.9621
26.2735
19.5307
12.9328
6.66696
0.895789
-4.25487
-8.70417
-12.4205
-15.4209
-17.7653
-19.5467
-20.8782
-21.8779
-22.6547
-23.2958
-23.8574
-24.3603
-24.7906
-25.1044
-25.2376
-25.1173
-24.6749
-23.8585
-22.6423
-21.0334
-19.0732
-16.8348
-14.417
-11.9337
-9.50321
-7.23621
-5.22554
-3.53827
-2.2112
-1.24994
-0.631615
-0.310413
-0.225175
-0.307793
-0.491348
-0.716978
-0.938789
-1.12644
-1.26539
-1.35514
-1.40582
-1.43401
-1.45812
-1.49414
-1.55226
-1.63457
-1.73414
-1.83561
-1.91705
-1.95286
-1.91752
-1.78957
-1.55539
-1.21224
-0.770117
-0.252016
0.307593
0.865959
1.3767
1.79535
2.08505
2.22164
2.19738
2.02256
1.72482
1.34616
0.938009
0.555142
0.249353
0.0638204
0.029016
0.160686
0.460136
0.916628
1.51138
2.2224
3.02929
3.91721
4.87933
5.91753
7.04111
8.2639
9.60007
11.0594
12.6426
14.3373
16.115
17.9307
19.7232
21.4188
22.9355
24.1902
25.1053
25.6158
25.6759
25.2629
24.3801
23.0559
21.3412
19.3048
17.0273
14.5943
12.0906
9.59485
7.17601
4.89136
2.7858
0.892322
-0.766854
-2.17891
-3.339
-4.24888
-4.91553
-5.3496
-5.56335
-5.56753
-5.36667
-4.9519
-4.29048
-3.31213
-1.89334
0.156903
3.1047
7.28551
13.0787
20.8585
30.9234
43.4095
58.2037
74.8744
92.6367
110.369
126.689
140.079
149.06
152.377
149.177
139.154
122.622
100.528
74.3713
46.0585
17.7057
-8.58886
-30.9687
-48.0119
-58.8687
-63.3289
-61.812
-55.2859
-45.1258
-32.9354
-20.3533
-8.86886
0.330088
6.46244
9.20245
8.67042
5.37136
0.0934909
-6.21773
-12.5924
-18.1587
-22.242
-24.4291
-24.5941
-22.8863
-19.6844
-15.5268
-11.0282
-6.79379
-3.34307
-1.0497
-0.105124
-0.507353
-2.07434
-4.47815
-7.29395
-10.0568
-12.3185
-13.6986
-13.9224
-12.8452
-10.4591
-6.88384
-2.34465
2.85995
8.39569
13.9309
19.1709
23.8862
27.9298
31.2444
33.8591
35.8758
37.4489
38.7607
39.9955
41.3156
42.8423
44.6423
46.7231
49.0345
51.478
53.9209
56.2136
58.2075
59.772
60.8075
61.2535
61.0922
60.3459
59.0705
57.3457
55.2636
52.9171
50.3901
47.7492
45.0399
42.2849
39.4863
36.6305
33.695
30.656
27.4963
24.2119
20.8166
17.3439
13.8461
10.3898
7.05031
3.9032
1.01637
-1.55764
-3.78747
-5.66625
-7.21209
-8.46547
-9.48408
-10.3357
-11.0897
-11.809
-12.5424
-13.3189
-14.1448
-15.0029
-15.8558
-16.6502
-17.324
-17.8143
-18.0646
-18.0318
-17.691
-17.0384
-16.0914
-14.8867
-13.4773
-11.927
-10.3059
-8.68435
-7.1288
-5.69741
-4.43687
-3.37992
-2.54366
-1.92875
-1.51946
-1.28498
-1.1819
-1.15794
-1.15701
-1.12483
-1.01506
-0.794846
-0.449337
0.0156524
0.573229
1.17751
1.76812
2.27664
2.63438
2.78061
2.67016
2.27978
1.61222
0.697758
-0.40708
-1.62346
-2.8564
-4.00246
-4.95827
-5.62903
-5.9362
-5.82368
-5.26215
-4.25108
-2.81844
-1.01813
1.0745
3.36875
5.76564
8.16541
10.4746
12.6126
14.516
16.1422
17.4702
18.5002
19.2507
19.7549
20.0558
20.2011
20.2382
20.2093
20.1489
20.0809
20.0182
19.963
19.9083
19.8398
19.7384
19.5822
19.3493
19.0189
18.5726
17.9955
17.2762
16.4078
15.3881
14.22
12.9119
11.4784
9.93983
8.32158
6.65229
4.96137
3.27592
1.6176
0.00018465
-1.57155
-3.10091
-4.59602
-6.06436
-7.50519
-8.90045
-10.2044
-11.3317
-12.1453
-12.4425
-11.9442
-10.2893
-7.04188
-1.71793
6.16331
17.0015
31.0172
48.1475
67.9545
89.5714
111.703
132.7
150.691
163.791
170.319
169.033
159.318
141.315
115.952
84.8858
50.3426
14.8923
-18.8255
-48.3805
-71.8053
-87.7877
-95.7829
-96.0328
-89.4946
-77.6918
-62.5105
-45.9676
-29.982
-16.1749
-5.72118
0.733922
3.08963
1.7392
-2.53333
-8.69166
-15.6011
-22.1777
-27.5144
-30.9724
-32.2291
-31.2824
-28.4147
-24.1258
-19.046
-13.8424
-9.12993
-5.39916
-2.96574
-1.94737
-2.26712
-3.68043
-5.81975
-8.24984
-10.5257
-12.2459
-13.0961
-12.8769
-11.5161
-9.0651
-5.68004
-1.59385
2.91851
7.57594
12.1243
16.3629
20.1626
23.4734
26.3214
28.7976
31.0388
33.2042
35.4511
37.9118
40.6756
43.7763
47.1886
50.8311
54.5777
58.2735
61.7547
64.8682
67.4904
69.5408
70.9897
71.8597
72.2193
72.1709
71.8344
71.3284
70.7504
70.1605
69.5691
68.9303
68.1443
67.0662
65.5237
63.3393
60.3562
56.4635
51.6173
45.8551
39.2997
32.1535
24.6818
17.1883
9.98548
3.36289
-2.44109
-7.26205
-11.0234
-13.7402
-15.5128
-16.5113
-16.9539
-17.0807
-17.1278
-17.3028
-17.7665
-18.6196
-19.8982
-21.5755
-23.5707
-25.7618
-28.0025
-30.139
-32.0268
-33.5443
-34.6032
-35.1546
-35.1904
-34.7405
-33.8667
-32.6544
-31.2016
-29.609
-27.9701
-26.3631
-24.8451
-23.4495
-22.1856
-21.0412
-19.9867
-18.9801
-17.973
-16.9155
-15.7604
-14.4669
-13.004
-11.3526
-9.50882
-7.48604
-5.31722
-3.05551
-0.773123
1.44218
3.49329
5.28227
6.72042
7.73869
8.29695
8.3907
8.05407
7.35838
6.40619
5.32129
4.2359
3.27652
2.55029
2.13372
2.06506
2.34148
2.92127
3.73081
4.67537
5.65218
6.56428
7.33304
7.90794
8.27234
8.44464
8.47489
8.43769
8.42221
8.52074
8.81693
9.37463
10.2284
11.3764
12.7758
14.3426
15.9543
17.4574
18.6787
19.4398
19.5743
18.9456
17.4633
15.0967
11.8832
7.93026
3.41046
-1.44926
-6.38399
-11.1105
-15.3486
-18.8422
-21.3783
-22.8038
-23.0381
-22.0815
-20.0193
-17.0192
-13.3245
-9.23846
-5.10423
-1.27698
1.90771
4.16839
5.31216
5.26621
4.10387
2.06276
-0.447248
-2.84881
-4.41807
-4.3255
-1.70039
4.27954
14.2761
28.6654
47.415
69.9865
95.2853
121.68
147.101
169.221
185.695
194.443
193.921
183.36
162.915
133.715
97.7865
57.8712
17.1415
-21.1351
-53.9502
-78.8773
-94.3235
-99.6812
-95.3607
-82.7057
-63.8043
-41.2237
-17.7044
4.14796
22.1363
34.6802
40.9382
40.8379
35.0135
24.6693
11.3882
-3.08528
-17.061
-29.0921
-38.1168
-43.5409
-45.2567
-43.6023
-39.2716
-33.1908
-26.38
-19.8163
-14.317
-10.4534
-8.50308
-8.44356
-9.98322
-12.6229
-15.738
-18.668
-20.8041
-21.6621
-20.9337
-18.5132
-14.496
-9.15333
-2.88796
3.82294
10.4887
16.6627
21.9897
26.2383
29.3156
31.2639
32.2426
32.4969
32.3205
32.0166
31.8629
32.0838
32.8341
34.193
36.1689
38.7114
41.7279
45.0997
48.6963
52.3834
56.0268
59.4906
62.6335
65.306
67.3507
68.6074
68.9246
68.1749
66.2731
63.1931
58.9803
53.7567
47.7174
41.1173
34.2509
27.4254
20.9335
15.0261
9.89117
5.63966
2.29985
-0.178644
-1.9129
-3.06833
-3.83647
-4.41168
-4.96946
-5.64865
-6.53921
-7.67635
-9.04128
-10.5679
-12.1542
-13.6768
-15.0073
-16.0276
-16.6434
-16.7946
-16.4608
-15.6625
-14.4579
-12.9355
-11.2041
-9.38085
-7.57892
-5.89672
-4.40877
-3.16002
-2.1637
-1.40302
-0.836171
-0.404092
-0.0398472
0.321588
0.73434
1.23455
1.83599
2.52878
3.28132
4.04481
4.75991
5.36442
5.80101
6.02415
6.00528
5.73596
5.22847
4.51422
3.64
2.66279
1.64358
0.641115
-0.29397
-1.12374
-1.82587
-2.39441
-2.83848
-3.17875
-3.44256
-3.65801
-3.8482
-4.02621
-4.19194
-4.33103
-4.41637
-4.41189
-4.27809
-3.97858
-3.48636
-2.78918
-1.89276
-0.821662
0.382498
1.6652
2.96493
4.22012
5.3761
6.39137
7.2423
7.92576
8.4592
8.87801
9.23006
9.56786
9.93896
10.3759
10.8869
11.45
12.0104
12.483
12.7611
12.7283
12.274
11.3096
9.78342
7.6915
5.08335
2.06107
-1.2279
-4.60353
-7.86987
-10.8334
-13.3209
-15.1951
-16.3659
-16.7974
-16.5104
-15.5795
-14.1267
-12.3112
-10.3158
-8.3302
-6.53153
-5.06166
-4.00251
-3.34976
-2.98774
-2.66912
-2.00502
-0.472452
2.55414
7.74229
15.7114
26.9196
41.5408
59.3533
79.6633
101.285
122.595
141.66
156.436
165.012
165.868
158.11
141.641
117.245
86.5552
51.9124
16.1234
-17.85
-47.2267
-69.7243
-83.8131
-88.8742
-85.2431
-74.1346
-57.4656
-37.6021
-17.0674
1.75079
16.8571
26.8405
30.9835
29.2828
22.3863
11.461
-1.98408
-16.2979
-29.8818
-41.3596
-49.7042
-54.3129
-55.0283
-52.1073
-46.1493
-37.9949
-28.61
-18.9697
-9.95506
-2.2721
3.60008
7.43012
9.2254
9.1977
7.71073
5.2175
2.19636
-0.906617
-3.72259
-5.98813
-7.5552
-8.38392
-8.5212
-8.0704
-7.15736
-5.89886
-4.3782
-2.63123
-0.644442
1.63572
4.28467
7.37643
10.9599
15.0388
19.5592
24.4063
29.4115
34.3681
39.0544
43.2585
46.8039
49.5699
51.5057
52.6356
53.0551
52.917
52.4111
51.7388
51.0846
50.5906
50.3359
50.3241
50.4816
50.6665
50.6872
50.3292
49.3845
47.6814
45.1089
41.6338
37.3079
32.2637
26.7013
20.8665
15.0247
9.43307
4.31467
-0.162466
-3.89882
-6.86836
-9.11459
-10.7387
-11.8816
-12.7015
-13.3521
-13.9614
-14.6163
-15.3534
-16.1575
-16.9681
-17.6917
-18.2191
-18.4448
-18.2845
-17.6907
-16.6618
-15.2447
-13.5313
-11.648
-9.74132
-7.9602
-6.43937
-5.28421
-4.56007
-4.28702
-4.44048
-4.95729
-5.74609
-6.70025
-7.71131
-8.68088
-9.52928
-10.1997
-10.6577
-10.8867
-10.8807
-10.6358
-10.1431
-9.38459
-8.33253
-6.953
-5.21321
-3.09078
-0.58364
2.28148
5.44353
8.80549
12.2373
15.5829
18.6707
21.326
23.3853
24.7091
25.1951
24.7878
23.4872
21.3526
18.5037
15.1162
11.4127
7.64849
4.09337
1.00996
-1.36866
-2.86001
-3.34946
-2.80134
-1.26246
1.14288
4.22585
7.75288
11.4696
15.1264
18.5016
21.4206
23.7666
25.4843
26.5743
27.0816
27.079
26.649
25.8682
24.7943
23.4602
21.8736
20.0228
17.8872
15.4496
12.7086
9.68914
6.44782
3.07404
-0.315008
-3.58388
-6.59195
-9.20796
-11.3242
-12.8682
-13.8102
-14.1663
-13.9958
-13.3942
-12.4825
-11.3942
-10.2616
-9.20221
-8.30709
-7.62992
-7.17743
-6.89955
-6.67824
-6.31505
-5.51916
-3.90017
-0.972752
3.81852
11.047
21.2213
34.6771
51.4566
71.1973
93.0584
115.708
137.389
156.073
169.685
176.367
174.756
164.213
144.978
118.203
85.8734
50.601
15.3325
-16.9938
-43.7929
-63.1302
-73.9324
-76.0839
-70.3998
-58.4839
-42.4955
-24.8599
-7.96313
6.12877
15.8915
20.4816
19.7805
14.3462
5.28398
-5.9394
-17.7112
-28.4879
-36.9831
-42.3064
-44.04
-42.2492
-37.4302
-30.4094
-22.2096
-13.9046
-6.48013
-0.720114
2.87243
4.11146
3.12166
0.294441
-3.78464
-8.42534
-12.9264
-16.6618
-19.1493
-20.0946
-19.4086
-17.197
-13.7264
-9.37415
-4.56801
0.274406
4.79905
8.75537
12.0185
14.5924
16.5946
18.2272
19.7377
21.3774
23.3625
25.8428
28.8824
32.454
36.4465
40.6832
44.9493
49.0213
52.6974
55.8222
58.3033
60.1193
61.3164
61.9973
62.3024
62.387
62.3989
62.4571
62.6362
62.9573
63.3861
63.8379
64.1881
64.2868
63.9749
63.1008
61.5342
59.1781
55.9762
51.9183
47.0407
41.4257
35.1975
28.5167
21.5731
14.5766
7.74711
1.3028
-4.55154
-9.63655
-13.8089
-16.9703
-19.073
-20.1222
-20.1745
-19.3321
-17.7349
-15.5489
-12.9548
-10.1365
-7.26942
-4.51256
-2.00111
0.157804
1.88739
3.1416
3.90388
4.18487
4.01908
3.46104
2.58101
1.46053
0.187717
-1.14726
-2.45671
-3.65977
-4.68627
-5.48029
-6.00292
-6.23406
-6.1731
-5.83831
-5.26478
-4.50103
-3.6046
-2.63694
-1.65801
-0.721428
0.129549
0.864587
1.46717
1.93381
2.27176
2.49562
2.62356
2.67347
2.65998
2.59242
2.47418
2.30333
2.07423
1.77976
1.4137
0.972902
0.45904
-0.119938
-0.748635
-1.40315
-2.05027
-2.6472
-3.14258
-3.47906
-3.59825
-3.44756
-2.98867
-2.20605
-1.11425
0.23801
1.7684
3.36688
4.907
6.26149
7.31992
8.00574
8.28963
8.19645
7.8042
7.2343
6.63461
6.15744
5.93604
6.06321
6.57558
7.44589
8.58463
9.85061
11.069
12.0541
12.6333
12.6694
12.0783
10.8385
8.99394
6.64765
3.9487
1.07406
-1.79216
-4.47926
-6.84774
-8.80227
-10.2986
-11.3442
-11.9922
-12.3313
-12.4718
-12.5287
-12.6047
-12.771
-13.046
-13.3724
-13.593
-13.428
-12.4598
-10.1356
-5.79506
1.26596
11.6954
25.9535
44.1677
65.9995
90.5546
116.367
141.473
163.585
180.341
189.609
189.781
180.036
160.498
132.287
97.4353
58.6775
19.1571
-17.9257
-49.6686
-73.7811
-88.8161
-94.2945
-90.7109
-79.4248
-62.4579
-42.2271
-21.2503
-1.86195
14.027
25.1012
30.7281
30.9587
26.4485
18.3173
7.96842
-3.10558
-13.5067
-22.0846
-28.0447
-31.0016
-30.9804
-28.3678
-23.827
-18.1883
-12.3301
-7.06632
-3.05184
-0.714579
-0.220868
-1.47468
-4.14834
-7.73875
-11.6407
-15.2274
-17.9283
-19.2951
-19.0488
-17.1042
-13.5692
-8.72138
-2.96693
3.21384
9.3255
14.9145
19.6173
23.1955
25.5533
26.7394
26.9316
26.41
25.5207
24.6357
24.113
24.2613
25.3108
27.3945
30.539
34.6662
39.604
45.1046
50.8689
56.5721
61.8912
66.529
70.234
72.8161
74.1541
74.1989
72.9691
70.5431
67.0466
62.6389
57.4986
51.8111
45.7583
39.5112
33.2258
27.0413
21.0798
15.4463
10.23
5.50311
1.32077
-2.28109
-5.28715
-7.70413
-9.56116
-10.9089
-11.8167
-12.3684
-12.6565
-12.7747
-12.8117
-12.8433
-12.9278
-13.1023
-13.3811
-13.7569
-14.2044
-14.6845
-15.1504
-15.554
-15.8509
-16.006
-15.997
-15.8159
-15.4699
-14.9799
-14.3776
-13.7012
-12.9898
-12.2773
-11.5862
-10.9221
-10.2707
-9.59741
-8.84944
-7.96266
-6.87077
-5.51678
-3.86533
-1.91373
0.299939
2.69362
5.14397
7.49545
9.57516
11.2119
12.2572
12.6053
12.2095
11.0923
9.34824
7.13685
4.66912
2.18648
-0.0640066
-1.85579
-3.00717
-3.40116
-2.99857
-1.84297
-0.0569688
2.16973
4.59916
6.96891
9.01863
10.5165
11.2833
11.2116
10.2784
8.54965
6.17551
3.37748
0.427574
-2.37813
-4.74886
-6.42828
-7.22006
-7.00685
-5.76056
-3.5425
-0.493871
3.18213
7.24383
11.4368
15.5181
19.276
22.5425
25.1986
27.1723
28.4309
28.9715
28.8101
27.9741
26.4981
24.4228
21.7991
18.6923
15.1878
11.3944
7.44429
3.48931
-0.306766
-3.77932
-6.77569
-9.1679
-10.8637
-11.8145
-12.0192
-11.5238
-10.417
-8.82237
-6.88827
-4.77572
-2.64463
-0.638336
1.1342
2.61887
3.83949
4.92169
6.11397
7.79957
10.4912
14.8004
21.3746
30.803
43.4969
59.5609
78.6796
100.045
122.347
143.851
162.546
176.37
183.472
182.471
172.682
154.26
128.239
96.4637
61.4017
25.8815
-7.22704
-35.3356
-56.4255
-69.2623
-73.5089
-69.7284
-59.2772
-44.1081
-26.512
-8.83347
6.80117
18.7122
25.8242
27.7388
24.7202
17.602
7.6321
-3.71778
-14.9537
-24.7446
-32.0695
-36.3134
-37.302
-35.2788
-30.8319
-24.7846
-18.0663
-11.5836
-6.10564
-2.17964
-0.0818762
0.190795
-1.10739
-3.52955
-6.51443
-9.47219
-11.8658
-13.2772
-13.4507
-12.3101
-9.9488
-6.59918
-2.58575
1.72828
5.99346
9.9188
13.3037
16.0544
18.185
19.8034
21.0875
22.2529
23.5199
25.0814
27.077
29.5767
32.5729
35.9841
39.6658
43.4296
47.0648
50.3617
53.1333
55.2326
56.5647
57.0922
56.8346
55.8626
54.288
52.2526
49.9154
47.4414
44.9906
42.7082
40.7152
39.0996
37.9077
37.1371
36.7329
36.5872
36.5456
36.4192
36.0033
35.1006
33.5463
31.2319
28.1235
24.2729
19.8177
14.9707
9.9994
5.19834
0.856861
-2.77251
-5.50156
-7.22608
-7.93551
-7.71149
-6.71608
-5.17132
-3.33317
-1.46311
0.199003
1.45803
2.17999
2.30085
1.82722
0.829683
-0.56968
-2.21375
-3.92857
-5.5413
-6.89611
-7.86692
-8.36614
-8.34942
-7.8166
-6.80932
-5.40611
-3.71555
-1.86818
-0.00774483
1.71797
3.1665
4.21023
4.74602
4.70446
4.05827
2.82842
1.08703
-1.0445
-3.40272
-5.79506
-8.01756
-9.87577
-11.2066
-11.8983
-11.9051
-11.2558
-10.052
-8.45841
-6.6837
-4.95532
-3.49115
-2.47186
-2.01772
-2.17346
-2.90306
-4.09558
-5.58093
-7.15345
-8.59996
-9.72824
-10.3921
-10.5093
-10.0705
-9.13709
-7.82952
-6.30665
-4.74008
-3.28666
-2.06303
-1.12605
-0.461651
0.0158361
0.453641
1.04062
1.97969
3.4561
5.60542
8.4859
12.0591
16.1818
20.6118
25.0262
29.0526
32.3072
34.4379
35.1646
34.3127
31.8355
27.822
22.4892
16.1614
9.23742
2.15251
-4.66204
-10.8158
-15.9895
-19.9558
-22.5902
-23.8714
-23.8728
-22.7474
-20.7074
-18.0011
-14.8886
-11.6185
-8.40459
-5.40387
-2.6944
-0.25286
2.06732
4.5539
7.64361
11.9108
18.0273
26.6866
38.492
53.8174
72.6612
94.5209
118.32
142.418
164.71
182.837
194.457
197.571
190.83
173.784
147.031
112.218
71.9094
29.3186
-12.0517
-48.8136
-78.0846
-97.8111
-106.982
-105.706
-95.1489
-77.347
-54.921
-30.7422
-7.59117
12.146
26.709
35.1
37.1172
33.2922
24.749
13.0084
-0.230373
-13.3048
-24.7745
-33.559
-39.0187
-40.9743
-39.6716
-35.7015
-29.8887
-23.1677
-16.459
-10.562
-6.07355
-3.33898
-2.43852
-3.20594
-5.27453
-8.14202
-11.245
-14.0332
-16.0346
-16.9051
-16.4576
-14.6695
-11.6686
-7.70218
-3.09292
1.81016
6.68017
11.253
15.3557
18.9189
21.974
24.6344
27.0677
29.4612
31.9868
34.7716
37.8771
41.2893
44.922
48.6298
52.2305
55.5313
58.3557
60.5671
62.0853
62.8947
63.0429
62.6308
61.7965
60.6941
59.4725
58.2551
57.1228
56.1039
55.1698
54.2379
53.1824
51.8504
50.0832
47.7387
44.7139
40.9631
36.5101
31.451
25.9497
20.2223
14.5169
9.08704
4.16522
-0.0615254
-3.47089
-6.01681
-7.73218
-8.7227
-9.15279
-9.22571
-9.16028
-9.16696
-9.42604
-10.0698
-11.1704
-12.7342
-14.7026
-16.9592
-19.3423
-21.6607
-23.7133
-25.3081
-26.2804
-26.5092
-25.928
-24.5308
-22.3726
-19.563
-16.2562
-12.6355
-8.89798
-5.23765
-1.83186
1.16964
3.65138
5.53483
6.77742
7.36885
7.32572
6.68588
5.50359
3.84646
1.79481
-0.556997
-3.0979
-5.69787
-8.20745
-10.4609
-12.2839
-13.506
-13.977
-13.5867
-12.2834
-10.0903
-7.11438
-3.54732
0.345421
4.24587
7.81424
10.7256
12.7081
13.5773
13.2619
11.8171
9.42243
6.36458
3.00657
-0.252633
-3.02318
-4.96827
-5.84147
-5.51299
-3.98186
-1.37316
2.07895
6.05975
10.2101
14.1657
17.5945
20.229
21.8886
22.4918
22.057
20.6927
18.5782
15.9399
13.0232
10.0656
7.27254
4.79872
2.73701
1.11474
-0.102056
-0.997712
-1.69096
-2.31605
-3.0033
-3.86149
-4.96399
-6.34016
-7.97277
-9.80159
-11.7323
-13.6494
-15.4321
-16.9694
-18.1749
-18.997
-19.4259
-19.4939
-19.2709
-18.8536
-18.3488
-17.8522
-17.4204
-17.0409
-16.5999
-15.8538
-14.4113
-11.7352
-7.17256
-0.0215012
10.3661
24.4524
42.371
63.7981
87.8686
113.163
137.785
159.522
176.089
185.413
185.915
176.759
158.01
130.686
96.6866
58.6069
19.4617
-17.6476
-49.8727
-74.9264
-91.3159
-98.4769
-96.7937
-87.5085
-72.5349
-54.205
-34.9833
-17.1844
-2.72792
7.0422
11.4578
10.5401
4.9332
-4.22975
-15.5039
-27.3301
-38.2274
-46.9578
-52.6475
-54.8533
-53.5733
-49.204
-42.4557
-34.238
-25.5342
-17.2774
-10.2452
-4.98249
-1.75946
-0.566046
-1.14135
-3.03071
-5.66156
-8.42725
-10.7678
-12.2378
-12.5535
-11.6152
-9.50235
-6.44576
-2.78026
1.11288
4.86593
8.1784
10.8575
12.8401
14.1957
15.1087
15.8471
16.7195
18.0292
20.03
22.8906
26.6695
31.3053
36.6216
42.3463
48.1431
53.6506
58.5258
62.4845
65.3353
67.0014
67.5279
67.073
65.8845
64.2655
62.5329
60.9752
59.8154
59.1835
59.1026
59.4898
60.1711
60.9076
61.429
61.4687
60.7966
59.2436
56.7182
53.2106
48.7888
43.586
37.7835
31.5916
25.2302
18.9128
12.8332
7.15676
2.01538
-2.4944
-6.31055
-9.40309
-11.7707
-13.4369
-14.4459
-14.8586
-14.7489
-14.1996
-13.2981
-12.1328
-10.7889
-9.34429
-7.86633
-6.4096
-5.01474
-3.70915
-2.50939
-1.42507
-0.463642
0.364796
1.04361
1.54764
1.84373
1.8941
1.66218
1.12039
0.258323
-0.909755
-2.33974
-3.956
-5.65381
-7.30631
-8.77524
-9.92464
-10.6358
-10.822
-10.4405
-9.50094
-8.06822
-6.25968
-4.2361
-2.18768
-0.316086
1.18547
2.15218
2.46539
2.06628
0.963852
-0.763605
-2.97396
-5.47302
-8.03154
-10.4056
-12.3582
-13.6804
-14.209
-13.8398
-12.5357
-10.3283
-7.31361
-3.64327
0.488384
4.85934
9.23584
13.388
17.1044
20.2049
22.5517
24.059
24.6997
24.5102
23.5902
22.0992
20.2458
18.2716
16.4292
14.9553
14.0429
13.8142
14.3002
15.4287
17.0265
18.835
20.5403
21.8131
22.3561
21.9486
20.485
17.997
14.6584
10.7677
6.71175
2.91377
-0.225794
-2.38784
-3.38325
-3.18404
-1.93225
0.0752264
2.42355
4.63364
6.22497
6.77923
5.99663
3.73853
0.0529856
-4.81753
-10.4438
-16.2292
-21.4379
-25.2301
-26.7069
-24.9699
-19.1999
-8.7577
6.69902
27.0959
51.8418
79.7754
109.181
137.893
163.476
183.485
195.75
198.653
191.356
173.941
147.436
113.725
75.3603
35.2893
-3.45338
-38.0579
-66.2134
-86.3167
-97.5929
-100.121
-94.769
-83.0456
-66.9014
-48.4941
-29.9514
-13.1568
0.422136
9.84502
14.7446
15.3052
12.1823
6.37693
-0.918407
-8.48121
-15.2098
-20.2463
-23.0601
-23.4842
-21.7047
-18.2078
-13.6933
-8.96757
-4.83072
-1.97096
-0.879254
-1.79283
-4.67287
-9.2169
-14.9025
-21.0553
-26.9316
-31.8052
-35.0485
-36.1972
-34.9946
-31.4095
-25.6295
-18.0304
-9.12814
0.480666
10.1821
19.4052
27.6726
34.637
40.1013
44.0214
46.4928
47.7253
48.0076
47.6695
47.0428
46.4281
46.0686
46.1344
46.7162
47.8302
49.4304
51.4272
53.707
56.1521
58.6553
61.1292
63.5078
65.7422
67.7913
69.6093
71.1349
72.282
72.9371
72.9632
72.2112
70.5376
67.8262
64.0106
59.0941
53.1623
46.3874
39.0208
31.3756
23.8003
16.647
10.2372
4.83028
0.597682
-2.39359
-4.18693
-4.93028
-4.85912
-4.27018
-3.48856
-2.83198
-2.57593
-2.9239
-3.98575
-5.76701
-8.16999
-11.0066
-14.0212
-16.9208
-19.4087
-21.218
-22.1417
-22.0546
-20.9268
-18.8263
-15.9113
-12.4131
-8.61164
-4.80756
-1.29256
1.6777
3.90602
5.26915
5.72537
5.31383
4.14641
2.3933
0.264238
-2.01247
-4.21122
-6.12854
-7.59933
-8.50864
-8.79857
-8.46984
-7.57843
-6.22776
-4.55725
-2.72836
-0.909381
0.739688
2.08084
3.00924
3.46095
3.41668
2.90135
1.97976
0.748959
-0.671696
-2.1517
-3.56063
-4.77833
-5.70327
-6.25851
-6.39499
-6.09207
-5.35586
-4.21543
-2.71783
-0.922421
1.10467
3.29532
5.58296
7.9044
10.2003
12.4139
14.49
16.3725
18.0045
19.3285
20.2891
20.8368
20.9331
20.5563
19.7059
18.4066
16.7087
14.6874
12.4378
10.0685
7.69332
5.42192
3.35096
1.55653
0.0886534
-1.03159
-1.81191
-2.28588
-2.50764
-2.54483
-2.4708
-2.3568
-2.26532
-2.24498
-2.32777
-2.52849
-2.84618
-3.26638
-3.76279
-4.29568
-4.80516
-5.1974
-5.32416
-4.95894
-3.77623
-1.34358
2.86294
9.4112
18.8308
31.5019
47.5305
66.6341
88.0642
110.589
132.555
152.023
166.972
175.545
176.295
168.403
151.825
127.351
96.5606
61.6804
25.3553
-9.62767
-40.636
-65.4673
-82.5708
-91.1896
-91.4074
-84.0992
-70.7943
-53.474
-34.3296
-15.5142
1.08501
14.0256
22.425
26.0013
25.0428
20.3143
12.9182
4.12977
-4.77037
-12.6475
-18.6303
-22.1845
-23.1379
-21.6586
-18.1947
-13.3862
-7.96417
-2.65051
1.92913
5.30933
7.22112
7.59912
6.56267
4.37693
1.4019
-1.96228
-5.32607
-8.35135
-10.7787
-12.4399
-13.2569
-13.2292
-12.4147
-10.9071
-8.81344
-6.23641
-3.2613
0.0497909
3.65773
7.54102
11.6871
16.0822
20.7023
25.5054
30.4281
35.3854
40.2743
44.9812
49.3906
53.3952
56.9059
59.86
62.2263
64.0077
65.2394
65.9827
66.3163
66.3241
66.0826
65.6481
65.0472
64.2712
63.2751
61.9835
60.3008
58.1262
55.3709
51.9748
47.9213
43.247
38.0458
32.4653
26.6965
20.9576
15.4743
10.4576
6.08334
2.47482
-0.309198
-2.28022
-3.5188
-4.16662
-4.41256
-4.4737
-4.5728
-4.91416
-5.65995
-6.90982
-8.68605
-10.9267
-13.488
-16.1564
-18.6696
-20.7444
-22.1079
-22.5302
-21.8526
-20.0097
-17.0415
-13.0949
-8.41249
-3.31171
1.84542
6.68738
10.8697
14.1087
16.2085
17.0781
16.7374
15.3111
13.0116
10.1134
6.92269
3.74482
0.854482
-1.52873
-3.25685
-4.26091
-4.54891
-4.19578
-3.327
-2.09885
-0.678018
0.776734
2.1286
3.2714
4.13246
4.67061
4.87054
4.7354
4.27957
3.52306
2.4887
1.20234
-0.304354
-1.98939
-3.79584
-5.64837
-7.45258
-9.09775
-10.4636
-11.4309
-11.8943
-11.7768
-11.0429
-9.70897
-7.84874
-5.59186
-3.11574
-0.63036
1.64248
3.49315
4.74865
5.29422
5.08915
4.17438
2.67037
0.765218
-1.30593
-3.28769
-4.93424
-6.03819
-6.45504
-6.12006
-5.05573
-3.36919
-1.24011
1.09894
3.38727
5.36306
6.78942
7.47701
7.30103
6.21125
4.23464
1.47099
-1.91726
-5.71956
-9.6943
-13.587
-17.1482
-20.1506
-22.404
-23.7688
-24.1649
-23.5772
-22.0526
-19.6885
-16.6077
-12.9213
-8.68045
-3.82568
1.85528
8.74464
17.3722
28.3438
42.2203
59.3623
79.7654
102.923
127.751
152.604
175.4
193.832
205.661
209.03
202.753
186.539
161.092
128.095
90.0429
49.9762
11.1331
-23.4224
-51.1477
-70.2964
-80.0862
-80.7409
-73.4077
-59.9654
-42.756
-24.2779
-6.88373
7.47951
17.4582
22.3901
22.3078
17.8567
10.1445
0.550212
-9.48107
-18.6289
-25.8512
-30.4851
-32.2879
-31.4192
-28.3722
-23.8703
-18.7441
-13.8086
-9.75596
-7.07481
-6.00587
-6.53384
-8.41363
-11.2239
-14.438
-17.5018
-19.9071
-21.2525
-21.285
-19.9183
-17.2292
-13.4335
-8.84709
-3.83873
1.22034
6.00242
10.2609
13.8546
16.7577
19.0525
20.9099
22.5568
24.2383
26.1796
28.5523
31.4509
34.8823
38.7694
42.9676
47.2906
51.5406
55.5395
59.1526
62.3041
64.9799
67.2194
69.0961
70.6928
72.0753
73.2697
74.2477
74.9222
75.1554
74.7762
73.6054
71.4842
68.3018
64.0174
58.6741
52.4017
45.4099
37.9711
30.3971
23.0112
16.1219
9.99819
4.85131
0.822166
-2.02463
-3.70131
-4.293
-3.95024
-2.87842
-1.32455
0.438726
2.13175
3.48845
4.27804
4.32589
3.53145
1.88086
-0.548096
-3.58996
-7.00503
-10.5014
-13.7633
-16.4833
-18.3937
-19.2942
-19.0726
-17.7156
-15.309
-12.0278
-8.11667
-3.8646
0.423901
4.45716
7.98116
10.7982
12.7781
13.8605
14.0509
13.4091
12.0356
10.0555
7.60394
4.81455
1.81146
-1.294
-4.40279
-7.42454
-10.2726
-12.859
-15.0919
-16.8758
-18.1161
-18.7274
-18.6456
-17.8402
-16.3271
-14.1764
-11.5164
-8.5295
-5.44057
-2.4992
0.0438883
1.96285
3.08231
3.29915
2.59754
1.05485
-1.16289
-3.81617
-6.61641
-9.25705
-11.4473
-12.944
-13.5773
-13.2664
-12.0231
-9.94404
-7.192
-3.97094
-0.498088
3.02227
6.41948
9.56891
12.3945
14.8619
16.9633
18.6986
20.0559
20.9972
21.4522
21.3232
20.5009
18.8885
16.4303
13.1389
9.11526
4.55716
-0.247776
-4.9449
-9.14937
-12.4925
-14.6712
-15.4925
-14.9068
-13.0227
-10.1016
-6.53064
-2.77899
0.65863
3.32173
4.83995
4.97736
3.65982
0.982913
-2.79889
-7.29814
-12.0291
-16.4443
-19.9663
-22.0105
-21.9995
-19.373
-13.6027
-4.22169
9.12181
26.5849
48.0311
72.9297
100.279
128.583
155.905
180.005
198.565
209.464
211.072
202.506
183.813
156.035
121.144
81.8542
41.3216
2.79722
-30.7422
-56.9206
-74.2087
-82.059
-80.9159
-72.1061
-57.6295
-39.8826
-21.3538
-4.33068
9.34526
18.4496
22.4567
21.5292
16.4248
8.33933
-1.28861
-10.9846
-19.4292
-25.6109
-28.9259
-29.2166
-26.7507
-22.1479
-16.2687
-10.0836
-4.53913
-0.439657
1.64342
1.42561
-1.07612
-5.56593
-11.5223
-18.2724
-25.0762
-31.2111
-36.0455
-39.0972
-40.0698
-38.8678
-35.5902
-30.5063
-24.0178
-16.6121
-8.81249
-1.12828
5.98944
12.1843
17.2206
20.9973
23.5494
25.0366
25.7216
25.939
26.0579
26.4427
27.4152
29.2204
32.0024
35.7897
40.4929
45.9147
51.7704
57.7168
63.3868
68.4242
72.5177
75.428
77.0068
77.2058
76.0741
73.746
70.4205
66.3341
61.7334
56.848
51.8692
46.9366
42.133
37.4887
32.9925
28.609
24.2958
20.0211
15.7765
11.5849
7.5012
3.6072
0.00162433
-3.21322
-5.94565
-8.1276
-9.72465
-10.7416
-11.2234
-11.2503
-10.9304
-10.3876
-9.74921
-9.13359
-8.63914
-8.33622
-8.26214
-8.41951
-8.77751
-9.27581
-9.83052
-10.3416
-10.7016
-10.8048
-10.5565
-9.8824
-8.73542
-7.10223
-5.00647
-2.50971
0.290518
3.26548
6.26277
9.1161
11.657
13.7275
15.1925
15.9517
15.9485
15.1762
13.6802
11.5563
8.94359
6.01394
2.9565
-0.0400702
-2.80644
-5.20959
-7.16541
-8.64456
-9.67042
-10.3091
-10.6534
-10.8027
-10.8433
-10.8311
-10.7823
-10.6703
-10.434
-9.9918
-9.26231
-8.18568
-6.74268
-4.96722
-2.94981
-0.830813
1.21586
3.00613
4.37264
5.19075
5.39963
5.0148
4.13024
2.90932
1.56592
0.338114
-0.541786
-0.876884
-0.531007
0.553579
2.34824
4.74067
7.54751
10.5352
13.4456
16.024
18.0448
19.3328
19.7777
19.3409
18.0541
16.0114
13.3561
10.2644
6.92828
3.53962
0.276357
-2.70756
-5.28882
-7.37822
-8.92157
-9.89915
-10.3243
-10.2419
-9.72694
-8.88232
-7.83638
-6.73827
-5.75128
-5.04334
-4.77449
-5.08151
-6.0596
-7.74165
-10.0755
-12.9001
-15.9232
-18.7031
-20.6411
-20.9918
-18.8993
-13.4675
-3.86737
10.5231
29.9606
54.1856
82.309
112.771
143.4
171.571
194.478
209.458
214.349
207.817
189.586
160.556
122.76
79.1772
33.4092
-10.7163
-49.5823
-80.1871
-100.469
-109.511
-107.595
-96.1188
-77.3768
-54.2463
-29.8242
-7.05762
11.5815
24.3429
30.3407
29.5811
22.8816
11.6999
-2.10019
-16.5115
-29.6399
-39.9249
-46.2988
-48.2715
-45.9366
-39.9051
-31.1822
-21.0059
-10.6737
-1.37672
5.93587
10.6503
12.5309
11.7116
8.64311
4.00574
-1.39763
-6.75258
-11.3346
-14.5885
-16.1791
-16.0078
-14.1982
-11.0538
-6.99732
-2.49881
1.99483
6.1215
9.64832
12.4942
14.7286
16.5485
18.2372
20.113
22.4742
25.5498
29.4623
34.2066
39.6487
45.5424
51.5613
57.3408
62.524
66.8044
69.9613
71.882
72.57
72.1385
70.7904
68.7898
66.4274
63.9862
61.7099
59.7794
58.2974
57.2846
56.6841
56.3752
56.1919
55.9455
55.4467
54.5262
53.0505
50.9334
48.1405
44.6892
40.6425
36.1004
31.1885
26.0467
20.8182
15.6416
10.6451
5.94297
1.63523
-2.1927
-5.46913
-8.13611
-10.1506
-11.487
-12.1414
-12.1363
-11.5256
-10.3974
-8.87484
-7.11156
-5.28331
-3.57415
-2.15918
-1.18574
-0.755652
-0.9114
-1.62862
-2.81651
-4.32653
-5.96869
-7.53334
-8.81567
-9.63988
-9.87974
-9.47307
-8.42839
-6.82312
-4.79375
-2.51947
-0.20139
1.9599
3.7858
5.13769
5.92947
6.13364
5.78045
4.95073
3.76357
2.36054
0.888694
-0.51582
-1.74142
-2.71075
-3.38553
-3.76636
-3.88809
-3.8116
-3.6135
-3.37499
-3.17147
-3.06405
-3.09369
-3.27838
-3.6131
-4.0721
-4.61254
-5.17883
-5.70693
-6.12814
-6.37256
-6.37212
-6.06366
-5.3926
-4.31714
-2.81341
-0.880965
1.45205
4.12504
7.04373
10.0824
13.0905
15.9029
18.3537
20.2918
21.596
22.1879
22.041
21.184
19.6984
17.7103
15.3777
12.8743
10.3731
8.02988
5.97072
4.28248
3.00881
2.15075
1.67169
1.50566
1.5675
1.76353
2.00128
2.19727
2.28222
2.20341
1.92464
1.4245
0.693674
-0.267608
-1.45143
-2.84277
-4.41879
-6.14694
-7.98237
-9.8648
-11.7148
-13.4287
-14.8705
-15.8605
-16.1592
-15.4509
-13.3316
-9.31065
-2.836
6.64957
19.6193
36.3474
56.7836
80.4431
106.338
132.978
158.449
180.578
197.168
206.26
206.407
196.884
177.834
150.295
116.124
77.8042
38.1906
0.201954
-33.4837
-60.6965
-79.9736
-90.6685
-92.9625
-87.784
-76.6521
-61.4672
-44.2788
-27.0579
-11.5011
1.11428
10.0127
14.936
16.0983
14.0915
9.75961
4.05895
-2.07467
-7.83754
-12.6362
-16.127
-18.2166
-19.0294
-18.8505
-18.0544
-17.0332
-16.1318
-15.5995
-15.5619
-16.0154
-16.8402
-17.8303
-18.7326
-19.289
-19.2763
-18.5371
-16.9996
-14.6835
-11.6935
-8.20072
-4.41714
-0.565652
3.14933
6.56689
9.58715
12.1795
14.3805
16.2837
18.0207
19.74
21.5837
23.6669
26.0624
28.7923
31.8261
35.0879
38.4676
41.8378
45.0706
48.0552
50.711
52.9966
54.9134
56.5019
57.8335
58.9963
60.0793
61.1544
62.2596
63.3865
64.4725
65.4001
66.0039
66.0857
65.4363
63.8606
61.2058
57.3859
52.4017
46.3506
39.427
31.9098
24.1404
16.4911
9.33029
2.98588
-2.28645
-6.32752
-9.08816
-10.6306
-11.1175
-10.7909
-9.94186
-8.87743
-7.88576
-7.20565
-7.00296
-7.35663
-8.25553
-9.60589
-11.248
-12.9799
-14.5841
-15.855
-16.623
-16.7733
-16.2564
-15.0912
-13.3595
-11.1938
-8.76066
-6.24034
-3.80761
-1.61391
0.226184
1.64337
2.61623
3.16832
3.36069
3.28099
3.03101
2.71403
2.42353
2.23423
2.19588
2.33019
2.63038
3.06329
3.5733
4.0879
4.52442
4.79787
4.82929
4.55449
3.93208
2.95028
1.63123
0.0320655
-1.75779
-3.62329
-5.43388
-7.05602
-8.3667
-9.26633
-9.6893
-9.61079
-9.04899
-8.06239
-6.74256
-5.20356
-3.56955
-1.96236
-0.490709
0.757843
1.72183
2.3679
2.69054
2.71031
2.4712
2.03724
1.48861
0.916755
0.418438
0.0887996
0.0135836
0.261283
0.87604
1.87224
3.23162
4.90337
6.80736
8.84014
10.8832
12.8124
14.5083
15.8652
16.7992
17.2545
17.2061
16.6602
15.6523
14.2421
12.5066
10.5329
8.40981
6.22075
4.03757
1.91635
-0.10463
-2.00503
-3.78061
-5.4401
-7.00122
-8.4863
-9.91793
-11.3151
-12.6897
-14.0436
-15.3659
-16.6289
-17.7815
-18.7392
-19.3671
-19.4597
-18.7176
-16.7309
-12.978
-6.85218
2.27638
14.9608
31.5479
52.0366
75.954
102.276
129.424
155.348
177.707
194.121
202.462
201.16
189.446
167.525
136.619
98.8883
57.2298
14.9716
-24.4874
-58.0515
-83.2657
-98.5728
-103.46
-98.4791
-85.141
-65.7039
-42.8834
-19.526
1.71576
18.6649
29.8291
34.5164
32.8499
25.6858
14.4528
0.935739
-12.9658
-25.474
-35.137
-40.9776
-42.5751
-40.0729
-34.1179
-25.7426
-16.2085
-6.83226
1.18428
6.89803
9.72857
9.51084
6.49372
1.28763
-5.22955
-12.0347
-18.0936
-22.4896
-24.5319
-23.83
-20.3284
-14.2971
-6.28384
2.96607
12.6086
21.8063
29.8259
36.1171
40.3634
42.5021
42.7111
41.3693
38.9957
36.1769
33.4934
31.4533
30.4415
30.6878
32.2571
35.0604
38.8822
43.4188
48.3236
53.2503
57.8914
62.0064
65.4387
68.1191
70.0581
71.3268
72.0312
72.2817
72.1636
71.7125
70.8988
69.6246
67.7348
65.0412
61.3556
56.5281
50.484
43.2523
34.9814
25.9387
16.4927
7.08028
-1.8361
-9.81649
-16.4884
-21.5833
-24.9596
-26.6106
-26.6562
-25.3235
-22.9184
-19.7939
-16.3195
-12.8539
-9.72348
-7.20543
-5.51568
-4.79941
-5.12388
-6.4731
-8.74518
-11.7541
-15.2378
-18.873
-22.2994
-25.1493
-27.0826
-27.822
-27.184
-25.1026
-21.6411
-16.9899
-11.4512
-5.41137
0.696087
6.43177
11.3918
15.2445
17.7583
18.818
18.429
16.7089
13.8688
10.1875
5.98165
1.57536
-2.72708
-6.66326
-10.0279
-12.6806
-14.5466
-15.6114
-15.9105
-15.5173
-14.529
-13.0536
-11.1986
-9.06265
-6.73004
-4.26961
-1.73698
0.819661
3.35123
5.79832
8.08249
10.1007
11.7254
12.8112
13.2097
12.7905
11.4659
9.21535
6.1042
2.29362
-1.96288
-6.33674
-10.4547
-13.9387
-16.4495
-17.7276
-17.6242
-16.1173
-13.3106
-9.41445
-4.71452
0.467
5.81043
11.0312
15.9012
20.2571
23.9948
27.0554
29.4041
31.0102
31.8321
31.8111
30.8749
28.9514
25.99
21.984
16.9927
11.1554
4.69612
-2.08438
-8.82784
-15.148
-20.666
-25.0475
-28.0366
-29.4819
-29.3517
-27.7362
-24.8359
-20.9395
-16.3918
-11.5564
-6.77675
-2.33811
1.567
4.86788
7.63729
10.1028
12.6431
15.7645
20.0513
26.0901
34.3687
45.1643
58.4357
73.7455
90.2315
106.645
121.46
133.041
139.855
140.685
134.82
122.185
103.391
79.6962
52.8748
25.0241
-1.67249
-25.1902
-43.883
-56.6516
-63.0396
-63.2503
-58.0845
-48.8142
-37.0105
-24.3492
-12.421
-2.5652
4.25365
7.51699
7.16807
3.57534
-2.54762
-10.2528
-18.4846
-26.2065
-32.5155
-36.731
-38.4523
-37.5792
-34.2993
-29.043
-22.4169
-15.122
-7.87006
-1.30514
4.05962
7.88432
10.0208
10.5073
9.54201
7.44117
4.58889
1.3856
-1.79741
-4.6519
-6.95189
-8.55699
-9.40201
-9.47662
-8.80065
-7.40078
-5.2936
-2.47839
1.05931
5.33469
10.3444
16.0459
22.3395
29.0583
35.9692
42.7843
49.1844
54.8493
59.4929
62.8965
64.9359
65.599
64.9904
63.3221
60.8918
58.0513
55.1685
52.5886
50.5976
49.3944
49.0721
49.613
50.8947
52.7087
54.7864
56.8307
58.5484
59.6785
60.0156
59.4236
57.8404
55.2745
51.7951
47.5179
42.5896
37.1743
31.4416
25.5578
19.681
13.9579
8.52171
3.49137
-1.03044
-4.9593
-8.23167
-10.8077
-12.6736
-13.8426
-14.3547
-14.274
-13.6849
-12.6859
-11.3824
-9.88048
-8.27893
-6.66416
-5.10558
-3.65318
-2.33699
-1.16851
-0.143792
0.752277
1.541
2.24486
2.883
3.46777
4.00262
4.48151
4.88982
5.20653
5.40741
5.46858
5.3702
5.09968
4.65407
4.04154
3.28147
2.40349
1.44513
0.448634
-0.54297
-1.48993
-2.3594
-3.12808
-3.78353
-4.32398
-4.75655
-5.09458
-5.35414
-5.55073
-5.69645
-5.79825
-5.85746
-5.8706
-5.83129
-5.73269
-5.57009
-5.34302
-5.05647
-4.72095
-4.35151
-3.96563
-3.5806
-3.21064
-2.86429
-2.54242
-2.2372
-1.93207
-1.60271
-1.21899
-0.747527
-0.154747
0.589837
1.51044
2.62214
3.92861
5.42065
7.0757
8.85849
10.7227
12.6138
14.472
16.2358
17.8453
19.2439
20.3802
21.2086
21.6888
21.7865
21.4737
20.7301
19.5453
17.9219
15.8784
13.4526
10.7038
7.71277
4.5814
1.42834
-1.61648
-4.41976
-6.85389
-8.8067
-10.1908
-10.9514
-11.0726
-10.5798
-9.53952
-8.05499
-6.25781
-4.29563
-2.31537
-0.44168
1.24926
2.75957
4.1999
5.81431
7.99097
11.2489
16.192
23.4278
33.4543
46.5306
62.5541
80.9704
100.742
120.391
138.127
152.037
160.326
161.566
154.914
140.269
118.335
90.5851
59.116
26.4281
-4.85303
-32.269
-53.7987
-68.0714
-74.4957
-73.2931
-65.4335
-52.4872
-36.4136
-19.3182
-3.20821
10.2232
19.7596
24.7551
25.1543
21.4401
14.5237
5.59358
-4.05331
-13.1775
-20.739
-26.0009
-28.5856
-28.4818
-26.0053
-21.7248
-16.3637
-10.694
-5.43517
-1.17081
1.70942
3.03714
2.86243
1.4241
-0.900244
-3.65603
-6.37644
-8.64166
-10.1258
-10.6272
-10.0794
-8.54429
-6.18911
-3.25179
0.000127444
3.31166
6.47809
9.37345
11.9662
14.3201
16.5805
18.9481
21.6439
24.8707
28.7772
33.4288
38.7906
44.7239
50.9968
57.3079
63.318
68.6874
73.1125
76.357
78.2748
78.8219
78.0563
76.1266
73.2519
69.6955
65.7357
61.6381
57.6309
53.8876
50.5164
47.559
44.9959
42.7592
40.7479
38.8463
36.9405
34.9316
32.7452
30.3343
27.6785
24.779
21.6519
18.3213
14.814
11.157
7.3775
3.50506
-0.424024
-4.36293
-8.25123
-12.0139
-15.5629
-18.8002
-21.6237
-23.9328
-25.6345
-26.649
-26.9148
-26.3926
-25.0698
-22.9639
-20.1261
-16.6436
-12.6406
-8.27695
-3.74333
0.747416
4.97255
8.71485
11.7797
14.0124
15.3126
15.6454
15.0459
13.6176
11.5231
8.96917
6.18732
3.41181
0.857869
-1.29738
-2.92932
-3.97403
-4.42956
-4.35058
-3.83723
-3.02
-2.04253
-1.04465
-0.147484
0.557564
1.01512
1.20703
1.14883
0.882515
0.46684
-0.0331347
-0.555946
-1.05182
-1.48816
-1.85212
-2.15013
-2.40483
-2.64959
-2.92165
-3.2543
-3.66928
-4.17032
-4.73873
-5.33189
-5.88503
-6.31637
-6.53519
-6.45208
-5.98993
-5.09456
-3.74333
-1.95065
0.230535
2.7116
5.37523
8.0858
10.702
13.0901
15.1363
16.7561
17.9005
18.5565
18.744
18.5079
17.9071
17.0037
15.8519
14.4904
12.939
11.1996
9.2625
7.1156
4.75653
2.20443
-0.490513
-3.24169
-5.92666
-8.39409
-10.4767
-12.009
-12.8468
-12.8872
-12.0846
-10.4613
-8.11098
-5.19419
-1.92588
1.44298
4.64804
7.43613
9.58965
10.9499
11.4389
11.0808
10.0217
8.54702
7.09145
6.2342
6.67084
9.15436
14.4032
22.9816
35.1678
50.8318
69.3508
89.5858
109.936
128.475
143.158
152.074
153.708
147.178
132.401
110.166
82.0909
50.4737
18.039
-12.373
-38.1428
-57.1842
-68.1902
-70.7795
-65.5227
-53.8474
-37.8366
-19.9489
-2.70146
11.6421
21.3377
25.3473
23.4261
16.1041
4.56991
-9.52109
-24.2864
-37.8683
-48.666
-55.5189
-57.8219
-55.5624
-49.2804
-39.9627
-28.8898
-17.4578
-7.00036
1.3685
6.87133
9.13467
8.2018
4.49445
-1.26784
-8.17697
-15.2586
-21.5917
-26.4106
-29.1799
-29.6342
-27.7821
-23.8773
-18.363
-11.7998
-4.78662
2.1134
8.43533
13.8551
18.2104
21.499
23.8575
25.5254
26.8007
27.9924
29.3789
31.1732
33.5026
36.4003
39.8113
43.609
47.6188
51.6466
55.5049
59.0359
62.1262
64.7132
66.7834
68.3619
69.4981
70.2486
70.6611
70.762
70.5493
69.9917
69.0343
67.6087
65.6469
63.0955
59.9284
56.1563
51.8312
47.0448
41.9229
36.6145
31.2789
26.0716
21.1317
16.5711
12.4678
8.86355
5.76507
3.14959
0.972414
-0.824144
-2.30189
-3.51919
-4.5254
-5.35779
-6.04081
-6.58738
-7.00156
-7.28184
-7.4246
-7.427
-7.28913
-7.01524
-6.61422
-6.0993
-5.48746
-4.79859
-4.0546
-3.27858
-2.49402
-1.7241
-0.990931
-0.314881
0.286137
0.797326
1.20762
1.51024
1.70309
1.78911
1.77637
1.67793
1.5114
1.29811
1.06184
0.827138
0.617276
0.452047
0.345607
0.304669
0.327358
0.402944
0.512569
0.630934
0.728747
0.775602
0.742931
0.606601
0.34884
-0.0407272
-0.565017
-1.22029
-1.99758
-2.88437
-3.86618
-4.92753
-6.0522
-7.22256
-8.41807
-9.61323
-10.7753
-11.8626
-12.8227
-13.5926
-14.0991
-14.2612
-13.9941
-13.215
-11.8516
-9.85237
-7.19927
-3.9194
-0.0950617
4.13135
8.55949
12.9418
17.003
20.4666
23.0863
24.6774
25.1441
24.4973
22.8598
20.4561
17.5865
14.5891
11.7946
9.4798
7.8286
6.90648
6.65279
6.89305
7.36935
7.78447
7.85253
7.34792
6.14475
4.24008
1.75719
-1.07141
-3.9386
-6.50897
-8.46936
-9.57556
-9.68803
-8.7914
-6.99553
-4.51885
-1.65758
1.254
3.88627
5.95496
7.25645
7.6963
7.3115
6.28715
4.96717
3.85641
3.60827
4.99034
8.82086
15.8726
26.7481
41.7398
60.6965
82.9258
107.159
131.6
154.07
172.232
183.873
187.204
181.128
165.432
140.874
109.138
72.6694
34.4062
-2.55182
-35.2964
-61.4323
-79.3279
-88.2646
-88.468
-81.0249
-67.7016
-50.6938
-32.3437
-14.8618
-0.0890527
10.6765
16.7707
18.1691
15.4149
9.48485
1.61592
-6.88106
-14.797
-21.1679
-25.3716
-27.17
-26.6976
-24.4021
-20.9502
-17.1133
-13.649
-11.1941
-10.1816
-10.7908
-12.9336
-16.2785
-20.305
-24.3815
-27.8545
-30.1363
-30.7803
-29.5333
-26.3606
-21.4403
-15.1315
-7.92078
-0.357213
7.016
13.7233
19.4048
23.8462
26.9873
28.9118
29.8203
29.9926
29.7444
29.3859
29.1863
29.3487
29.9977
31.1794
32.8726
35.0075
37.489
40.2188
43.1142
46.1205
49.2139
52.3974
55.6869
59.0936
62.6019
66.1496
69.6132
72.8018
75.4623
77.298
77.9976
77.2718
74.8947
70.7401
64.8115
57.257
48.3682
38.5614
28.3437
18.2666
8.87397
0.649898
-6.02622
-10.9131
-13.9248
-15.1314
-14.7419
-13.0744
-10.5156
-7.47661
-4.34931
-1.46988
0.907293
2.62235
3.60875
3.88007
3.50815
2.59742
1.26029
-0.402058
-2.31039
-4.40849
-6.65535
-9.01099
-11.42
-13.7968
-16.0183
-17.9245
-19.3313
-20.0514
-19.9227
-18.837
-16.7661
-13.7775
-10.0393
-5.80931
-1.41258
2.79303
6.45625
9.27243
11.0185
11.5782
10.9537
9.26381
6.72753
3.637
0.322875
-2.88307
-5.68337
-7.84427
-9.21606
-9.7425
-9.45911
-8.48145
-6.98555
-5.18357
-3.29777
-1.53608
-0.071887
0.970255
1.52174
1.57006
1.15278
0.346847
-0.744887
-2.00771
-3.32802
-4.60377
-5.75146
-6.70957
-7.43867
-7.91889
-8.14566
-8.12486
-7.86808
-7.38889
-6.70041
-5.81422
-4.74061
-3.48963
-2.07269
-0.504253
1.19664
3.0053
4.8909
6.81652
8.73996
10.6149
12.3927
14.0238
15.4593
16.6522
17.5568
18.129
18.3253
18.103
17.4213
16.2444
14.5468
12.3206
9.58352
6.3867
2.82031
-0.984288
-4.85729
-8.5987
-11.9917
-14.8202
-16.8892
-18.0444
-18.1907
-17.3055
-15.4453
-12.7452
-9.41006
-5.69852
-1.90081
1.68699
4.79017
7.18141
8.70373
9.28862
8.96926
7.88895
6.30575
4.59373
3.23946
2.82993
4.02601
7.51424
13.9326
23.7711
37.2559
54.2367
74.1001
95.7363
117.577
137.717
154.106
164.794
168.197
163.329
149.979
128.791
101.232
69.4478
36.033
3.73285
-24.8712
-47.6539
-63.1768
-70.8283
-70.8577
-64.3024
-52.8229
-38.4706
-23.422
-9.71407
0.985893
7.5499
9.48125
6.92308
0.588587
-8.37294
-18.553
-28.4788
-36.8014
-42.4544
-44.767
-43.5215
-38.9518
-31.6891
-22.6634
-12.9771
-3.76452
3.9427
9.33213
11.8951
11.4723
8.25676
2.75655
-4.27616
-11.9407
-19.2949
-25.4611
-29.7191
-31.5751
-30.8024
-27.4481
-21.8095
-14.3846
-5.80381
3.24786
12.1073
20.2013
27.0977
32.5363
36.4372
38.8882
40.1148
40.4376
40.2246
39.8429
39.6177
39.7998
40.5478
41.9224
43.8936
46.3585
49.1648
52.1377
55.1055
57.9218
60.4803
62.723
64.6398
66.261
67.643
68.8501
69.934
70.914
71.7615
72.3912
72.6608
72.3816
71.3377
69.3136
66.1257
61.6549
55.8743
48.8688
40.8417
32.1075
23.0693
14.1836
5.91664
-1.30404
-7.13432
-11.3504
-13.8719
-14.7691
-14.2523
-12.6454
-10.3478
-7.78847
-5.37841
-3.46772
-2.31125
-2.04695
-2.6887
-4.13345
-6.1812
-8.56448
-10.9835
-13.1427
-14.7839
-15.7136
-15.8214
-15.0877
-13.5818
-11.45
-8.89689
-6.16118
-3.49001
-1.11381
0.775421
2.04046
2.60887
2.47609
1.70215
0.402746
-1.26385
-3.11265
-4.94885
-6.58448
-7.85348
-8.62425
-8.80914
-8.37049
-7.32322
-5.7339
-3.71658
-1.42558
0.95449
3.22104
5.16768
6.5996
7.34919
7.29079
6.35341
4.53011
1.88316
-1.45593
-5.29178
-9.37621
-13.4245
-17.1363
-20.2192
-22.4146
-23.5208
-23.4141
-22.0619
-19.5291
-15.9738
-11.6343
-6.80784
-1.82264
2.99204
7.33595
10.9638
13.7045
15.4716
16.2648
16.1623
15.306
13.8823
12.1002
10.1712
8.29104
6.62721
5.31043
4.43148
4.04141
4.15389
4.74835
5.77302
7.1474
8.76481
10.4957
12.1931
13.7003
14.862
15.5374
15.6141
15.0217
13.7419
11.8143
9.33673
6.45891
3.3705
0.284563
-2.58196
-5.0287
-6.89108
-8.05647
-8.47576
-8.16923
-7.22632
-5.79905
-4.08966
-2.33329
-0.776711
0.345471
0.835816
0.559258
-0.532126
-2.37513
-4.77289
-7.37582
-9.67027
-10.982
-10.5035
-7.35311
-0.671732
10.2472
25.8065
45.9555
70.0726
96.91
124.625
150.912
173.221
189.057
196.295
193.491
180.113
156.677
124.746
86.7902
45.9309
5.59009
-30.8963
-60.656
-81.5965
-92.6179
-93.6996
-85.8512
-70.9411
-51.4293
-30.0432
-9.44165
8.08963
20.8754
27.9941
29.317
25.4452
17.5612
7.2212
-3.88117
-14.1459
-22.2639
-27.3588
-29.0581
-27.4937
-23.2356
-17.1753
-10.3769
-3.91889
1.25156
4.43584
5.25833
3.69292
0.0420374
-5.12516
-11.0641
-16.9617
-22.0434
-25.6678
-27.3964
-27.0321
-24.6244
-20.4424
-14.9225
-8.59926
-2.03063
4.27296
9.90604
14.6062
18.2693
20.9432
22.802
24.108
25.1659
26.279
27.7107
29.6556
32.2244
35.4398
39.244
43.5142
48.0822
52.7562
57.3401
61.6501
65.5266
68.8406
71.4974
73.4357
74.6257
75.0656
74.7786
73.8089
72.2199
70.0907
67.5128
64.586
61.4125
58.0896
54.7015
51.3122
47.9584
44.6472
41.357
38.0427
34.6464
31.1096
27.3874
23.4611
19.3479
15.1053
10.8294
6.64708
2.70326
-0.855325
-3.89756
-6.32393
-8.07893
-9.15801
-9.60833
-9.52307
-9.03024
-8.27744
-7.41481
-6.57823
-5.87503
-5.37401
-5.10078
-5.0389
-5.13634
-5.31623
-5.49018
-5.57223
-5.49144
-5.2015
-4.68606
-3.95937
-3.06256
-2.05618
-1.01072
0.0035879
0.926039
1.71247
2.33923
2.8037
3.1217
3.32223
3.44084
3.51258
3.56576
3.61746
3.67135
3.71807
3.73786
3.70507
3.59358
3.38231
3.05995
2.62802
2.10192
1.50967
0.888722
0.281178
-0.271705
-0.735013
-1.08484
-1.31149
-1.42072
-1.43301
-1.38075
-1.30403
-1.24538
-1.24441
-1.33293
-1.53128
-1.84628
-2.27101
-2.78629
-3.36347
-3.96796
-4.5625
-5.10961
-5.57262
-5.91523
-6.10005
-6.08688
-5.83159
-5.28677
-4.40439
-3.14086
-1.46396
0.639354
3.15535
6.03771
9.20467
12.5399
15.898
19.1132
22.0124
24.4293
26.219
27.2712
27.5202
26.9512
25.601
23.555
20.9393
17.9098
14.6399
11.3076
8.08324
5.11904
2.54116
0.443567
-1.11577
-2.11692
-2.5784
-2.55588
-2.13906
-1.44639
-0.617361
0.197475
0.848533
1.20035
1.1448
0.612958
-0.415636
-1.90746
-3.77343
-5.87055
-8.00495
-9.93385
-11.3641
-11.9468
-11.2712
-8.8622
-4.19293
3.28046
14.0538
28.4799
46.6533
68.2927
92.6483
118.459
143.987
167.131
185.63
197.316
200.399
193.73
177.009
150.892
116.982
77.6993
36.0402
-4.73646
-41.4647
-71.414
-92.5779
-103.873
-105.224
-97.5268
-82.5062
-62.4768
-40.0547
-17.8509
1.8143
17.1415
27.0035
31.0062
29.4564
23.2509
13.7052
2.34872
-9.28433
-19.8426
-28.3016
-34.0505
-36.9161
-37.1264
-35.2268
-31.9628
-28.1497
-24.547
-21.755
-20.144
-19.8235
-20.6507
-22.2738
-24.2002
-25.8794
-26.7868
-26.4984
-24.7455
-21.4464
-16.7102
-10.816
-4.17165
2.7416
9.42949
15.4434
20.4296
24.1636
26.5673
27.7077
27.7791
27.0725
25.9367
24.7369
23.8151
23.4574
23.871
25.1712
27.3809
30.4387
34.2152
38.533
43.1886
47.9726
52.6864
57.1535
61.2257
64.7841
67.736
70.009
71.5448
72.293
72.208
71.248
69.3785
66.5788
62.8503
58.2264
52.7805
46.6314
39.9441
32.9252
25.8124
18.8595
12.3177
6.41584
1.34106
-2.77628
-5.87294
-7.95617
-9.09976
-9.43327
-9.12564
-8.36531
-7.33937
-6.21454
-5.12255
-4.15204
-3.34788
-2.71782
-2.24499
-1.90361
-1.67504
-1.56073
-1.58963
-1.81841
-2.32425
-3.19123
-4.49263
-6.27238
-8.52865
-11.203
-14.177
-17.2775
-20.2899
-22.978
-25.108
-26.4728
-26.9137
-26.3375
-24.7262
-22.1387
-18.7065
-14.6223
-10.125
-5.48249
-0.972818
3.1335
6.59066
9.19298
10.7883
11.289
10.6792
9.01868
6.44149
3.14946
-0.600075
-4.51198
-8.27578
-11.5914
-14.1957
-15.8879
-16.5497
-16.1577
-14.7871
-12.6031
-9.84284
-6.78842
-3.7341
-0.952267
1.3377
2.99358
3.96391
4.28939
4.09157
3.5505
2.87464
2.26749
1.89619
1.86697
2.21145
2.88575
3.78225
4.75179
5.63212
6.27766
6.58566
6.5143
6.09048
5.40623
4.60507
3.86092
3.35332
3.24261
3.64872
4.63578
6.20394
8.28839
10.765
13.4611
16.1706
18.6716
20.7449
22.1935
22.8594
22.6391
21.4933
19.4529
16.6176
13.1485
9.25496
5.17618
1.16024
-2.55772
-5.77531
-8.33836
-10.1506
-11.1767
-11.4397
-11.0133
-10.0124
-8.58239
-6.88928
-5.11123
-3.4301
-2.02146
-1.04051
-0.601315
-0.748418
-1.42193
-2.42075
-3.37202
-3.71789
-2.73153
0.427811
6.61649
16.5698
30.7424
49.1519
71.2566
95.8997
121.343
145.399
165.658
179.772
185.771
182.346
169.065
146.48
116.107
80.2752
41.8716
4.01618
-30.2901
-58.4928
-78.7461
-90.0797
-92.4525
-86.6962
-74.3616
-57.4944
-38.3729
-19.2431
-2.08129
11.5895
20.8136
25.2407
25.0917
21.0633
14.1904
5.68555
-3.22255
-11.4321
-18.0794
-22.6073
-24.7902
-24.7151
-22.7297
-19.3648
-15.2465
-11.0072
-7.20905
-4.28541
-2.50555
-1.96363
-2.58943
-4.17647
-6.4215
-8.9693
-11.4568
-13.5519
-14.9841
-15.5638
-15.1918
-13.8578
-11.6304
-8.64005
-5.05855
-1.07569
3.12255
7.37281
11.5481
15.5653
19.3855
23.0089
26.4637
29.7935
33.0427
36.2443
39.4104
42.5283
45.5605
48.4501
51.129
53.529
55.592
57.2797
58.5793
59.5062
60.1016
60.4263
60.5506
60.5423
60.4528
60.305
60.0829
59.7273
59.1357
58.1713
56.6773
54.4978
51.5008
47.6019
42.7838
37.1089
30.7228
23.8471
16.7619
9.78104
3.22132
-2.62887
-7.53806
-11.3538
-14.0156
-15.5567
-16.0962
-15.8212
-14.9624
-13.7674
-12.4724
-11.2792
-10.3368
-9.73157
-9.48628
-9.56642
-9.89412
-10.3662
-10.8745
-11.3241
-11.6487
-11.8191
-11.8443
-11.7647
-11.6395
-11.5286
-11.4733
-11.4801
-11.5083
-11.4679
-11.2251
-10.6193
-9.48641
-7.68744
-5.13667
-1.82567
2.16146
6.64453
11.3567
15.9662
20.1087
23.4248
25.5998
26.3995
25.697
23.4893
19.8985
15.1613
9.60603
3.6211
-2.38042
-7.99685
-12.8701
-16.7112
-19.3174
-20.5799
-20.4828
-19.0956
-16.56
-13.0739
-8.87477
-4.22371
0.609337
5.35849
9.77339
13.6293
16.7364
18.9478
20.1665
20.3507
19.5163
17.7372
15.141
11.9023
8.23206
4.36457
0.543057
-2.99437
-6.02724
-8.36238
-9.84027
-10.3383
-9.77218
-8.09621
-5.30521
-1.43779
3.41778
9.11653
15.4503
22.145
28.864
35.2209
40.8022
45.1983
48.0414
49.0446
48.0371
44.9896
40.0259
33.4179
25.5634
16.9505
8.11188
-0.423739
-8.17777
-14.759
-19.8886
-23.4115
-25.2938
-25.609
-24.5168
-22.2377
-19.0286
-15.1605
-10.901
-6.50178
-2.18807
1.8499
5.46738
8.5788
11.1756
13.3465
15.2973
17.3626
20.0028
23.7775
29.2895
37.0988
47.6125
60.9653
76.9121
94.7572
113.344
131.116
146.258
156.901
161.358
158.375
147.334
128.394
102.531
71.4724
37.5312
3.36064
-28.3398
-55.1253
-75.0747
-86.9924
-90.5192
-86.1407
-75.0952
-59.1982
-40.608
-21.5654
-4.14058
9.98205
19.658
24.361
24.1819
19.7551
12.1271
2.5881
-7.50799
-16.9145
-24.6313
-30
-32.7464
-32.9703
-31.0885
-27.7438
-23.6927
-19.6899
-16.3839
-14.2366
-13.4743
-14.0747
-15.7885
-18.1893
-20.7437
-22.8911
-24.121
-24.0404
-22.4205
-19.2209
-14.5876
-8.82835
-2.36922
4.30082
10.6897
16.3584
20.9679
24.3104
26.3235
27.0869
26.8023
25.7624
24.3116
22.8063
21.5771
20.8992
20.9726
21.9121
23.7484
26.4371
29.8728
33.9064
38.3624
43.0538
47.7936
52.4028
56.7142
60.5742
63.8428
66.3943
68.1186
68.9239
68.7423
67.5355
65.3015
62.0791
57.9514
53.0448
47.5239
41.5825
35.4309
29.2806
23.3279
17.7388
12.6358
8.08958
4.11555
0.676401
-2.30961
-4.95566
-7.39008
-9.73874
-12.108
-14.5703
-17.1538
-19.8369
-22.549
-25.1761
-27.5712
-29.5687
-31.0009
-31.7147
-31.5881
-30.5442
-28.5613
-25.6791
-21.9986
-17.6778
-12.9207
-7.96272
-3.05206
1.57038
5.69058
9.13846
11.8004
13.626
14.6279
14.8755
14.4836
13.5964
12.3707
10.959
9.49541
8.08513
6.79876
5.67157
4.70712
3.88434
3.16648
2.51084
1.87755
1.23651
0.571619
-0.117816
-0.818538
-1.50696
-2.15425
-2.73192
-3.21706
-3.59646
-3.86911
-4.04686
-4.15323
-4.22086
-4.28782
-4.39347
-4.57405
-4.85832
-5.26335
-5.79037
-6.42101
-7.11434
-7.8055
-8.40712
-8.81453
-8.91534
-8.60327
-7.79467
-6.44566
-4.56666
-2.23121
0.423471
3.20556
5.88729
8.23106
10.0197
11.0866
11.3405
10.7826
9.51038
7.71027
5.63756
3.58731
1.85983
0.725371
0.392717
0.985647
2.52994
4.95203
8.08879
11.7063
15.5244
19.2441
22.574
25.2531
27.0693
27.8717
27.5785
26.1792
23.7337
20.3674
16.2639
11.6546
6.805
1.99858
-2.48238
-6.37777
-9.47103
-11.6091
-12.7187
-12.8159
-12.0082
-10.4866
-8.50797
-6.369
-4.37255
-2.79014
-1.82277
-1.56322
-1.96278
-2.80618
-3.69882
-4.07209
-3.21268
-0.320982
5.39906
14.6224
27.7683
44.8682
65.4597
88.5337
112.556
135.575
155.408
169.897
177.184
175.979
165.768
146.927
120.725
89.1989
54.9345
20.7695
-10.5328
-36.5939
-55.674
-66.8383
-70.0166
-65.9569
-56.0838
-42.2874
-26.674
-11.3118
1.99581
11.8862
17.545
18.7407
15.7889
9.45856
0.837123
-8.82541
-18.2735
-26.3867
-32.2911
-35.4324
-35.6083
-32.9608
-27.9341
-21.2049
-13.5959
-5.98091
0.808604
6.06548
9.27194
10.1419
8.63827
4.96515
-0.46269
-7.06898
-14.1777
-21.0811
-27.107
-31.6786
-34.3624
-34.8992
-33.2174
-29.4269
-23.7973
-16.7221
-8.67453
-0.15875
8.33656
16.3794
23.6258
29.8393
34.8984
38.7907
41.5983
43.475
44.62
45.2505
45.5775
45.7859
46.0214
46.3839
46.928
47.6679
48.5872
49.6489
50.8068
52.0147
53.2336
54.4351
55.6026
56.7283
57.808
58.8332
59.7827
60.6135
61.2546
61.6041
61.5312
60.8843
59.505
57.2464
53.994
49.6864
44.3321
38.0199
30.9216
23.2836
15.4108
7.64101
0.315984
-6.25031
-11.8006
-16.1575
-19.2383
-21.0592
-21.7286
-21.4309
-20.4024
-18.9025
-17.1846
-15.4698
-13.9263
-12.6574
-11.6986
-11.0239
-10.5585
-10.1977
-9.82693
-9.34116
-8.66117
-7.74427
-6.58893
-5.23326
-3.74799
-2.2256
-0.767296
0.530199
1.58637
2.34573
2.78291
2.90377
2.74274
2.35721
1.81988
1.21035
0.606895
0.0794322
-0.315957
-0.540736
-0.576119
-0.424114
-0.107704
0.329772
0.826235
1.3039
1.67418
1.84467
1.72817
1.25296
0.373346
-0.921228
-2.59988
-4.58837
-6.77244
-9.00639
-11.1265
-12.9678
-14.3813
-15.2511
-15.5067
-15.1311
-14.1615
-12.6842
-10.8234
-8.72612
-6.54504
-4.42208
-2.4741
-0.782878
0.61007
1.70355
2.53228
3.159
3.66442
4.13625
4.6586
5.3026
6.11895
7.13294
8.34214
9.7167
11.2023
12.725
14.1983
15.5306
16.6335
17.429
17.8564
17.8757
17.47
16.6441
15.4218
13.8407
11.9483
9.79748
7.44534
4.95302
2.38754
-0.175771
-2.65171
-4.94561
-6.95664
-8.58435
-9.73787
-10.3469
-10.3724
-9.81616
-8.72662
-7.2002
-5.37769
-3.4354
-1.57214
0.00710052
1.10926
1.57212
1.28351
0.200877
-1.62858
-4.04707
-6.76629
-9.35207
-11.2203
-11.6528
-9.84183
-4.96968
3.6788
16.5798
33.8308
55.0347
79.2362
104.934
130.182
152.77
170.471
181.312
183.829
177.276
161.739
138.15
108.199
74.1491
38.5907
4.16377
-26.715
-52.0868
-70.6206
-81.7036
-85.4462
-82.6092
-74.4654
-62.62
-48.8113
-34.7182
-21.7942
-11.1447
-3.45773
1.01117
2.40231
1.17498
-1.99657
-6.3385
-11.0887
-15.591
-19.3624
-22.1282
-23.8243
-24.5699
-24.6184
-24.2943
-23.9272
-23.7928
-24.0666
-24.7987
-25.9087
-27.2025
-28.4051
-29.2054
-29.3052
-28.4648
-26.5411
-23.5102
-19.4742
-14.6508
-9.34625
-3.91686
1.27653
5.91496
9.76178
12.6919
14.7055
15.9248
16.5747
16.949
17.3701
18.1446
19.5241
21.6743
24.6571
28.4274
32.8441
37.6928
42.7166
47.6505
52.254
56.3383
59.7844
62.5505
64.6679
66.2272
67.3566
68.196
68.8709
69.4697
70.0277
70.5207
70.867
70.94
70.5856
69.645
67.9773
65.4787
62.0981
57.8443
52.788
47.0556
40.8193
34.2821
27.6619
21.1752
15.0222
9.37419
4.36417
0.0811166
-3.43228
-6.17844
-8.2007
-9.57667
-10.4098
-10.8198
-10.9335
-10.8755
-10.7613
-10.691
-10.7452
-10.9822
-11.4356
-12.1129
-12.9952
-14.0367
-15.1673
-16.2961
-17.318
-18.1219
-18.6012
-18.6644
-18.2455
-17.3123
-15.8714
-13.9699
-11.6917
-9.15126
-6.48294
-3.82882
-1.32583
0.906196
2.77426
4.21862
5.21535
5.77501
5.93792
5.76668
5.33738
4.73026
4.02124
3.27494
2.53994
1.84632
1.20563
0.612757
0.0492513
-0.512357
-1.10384
-1.7565
-2.49657
-3.3411
-4.29442
-5.3453
-6.46523
-7.60796
-8.71063
-9.69672
-10.481
-10.976
-11.1005
-10.7874
-9.99295
-8.70313
-6.93916
-4.75944
-2.25832
0.438699
3.18325
5.81534
8.17672
10.1254
11.5495
12.3799
12.5988
12.2438
11.407
10.2277
8.88003
7.55623
6.44736
5.72298
5.51233
5.8891
6.86141
8.36855
10.2849
12.4309
14.5904
16.5316
18.0314
18.8989
18.9962
18.2549
16.6854
14.3786
11.4991
8.27131
4.9578
1.83462
-0.836099
-2.83245
-3.99565
-4.24707
-3.59784
-2.1499
-0.0883847
2.33395
4.81886
7.04925
8.71803
9.55632
9.35905
8.00563
5.47497
1.8545
-2.65559
-7.7415
-12.9766
-17.8236
-21.6406
-23.6949
-23.1936
-19.3371
-11.4013
1.15273
18.5523
40.5879
66.5165
95.0184
124.233
151.881
175.474
192.582
201.135
199.704
187.731
165.652
134.91
97.832
57.3921
16.8921
-20.4073
-51.6478
-74.6826
-88.2931
-92.2865
-87.4653
-75.4784
-58.5784
-39.3199
-20.2431
-3.58084
8.97255
16.4089
18.4569
15.5375
8.6395
-0.863812
-11.4272
-21.5463
-29.9434
-35.7058
-38.3636
-37.9025
-34.7175
-29.5177
-23.2007
-16.7149
-10.9286
-6.52296
-3.91897
-3.24566
-4.34918
-6.8377
-10.1532
-13.6579
-16.724
-18.8132
-19.5392
-18.7042
-16.3094
-12.539
-7.72245
-2.281
3.33297
8.69626
13.4669
17.4218
20.4761
22.683
24.2152
25.3311
26.3324
27.5182
29.143
31.3824
34.3135
37.908
42.0415
46.5145
51.0819
55.4874
59.4967
62.9254
65.6596
67.6644
68.9825
69.7218
70.0358
70.0982
70.0762
70.1061
70.2726
70.5961
71.0269
71.4484
71.6872
71.5307
70.7484
69.1164
66.4427
62.5901
57.4954
51.1833
43.7713
35.4672
26.5575
17.3878
8.3374
-0.210951
-7.90096
-14.4313
-19.5788
-23.2135
-25.3058
-25.9225
-25.2153
-23.4016
-20.7407
-17.5089
-13.9763
-10.3877
-6.94917
-3.82144
-1.11849
1.08854
2.76482
3.90385
4.51975
4.64089
4.30526
3.5577
2.44861
1.03327
-0.628484
-2.47297
-4.43341
-6.44039
-8.42164
-10.3006
-11.9942
-13.4108
-14.4498
-15.0035
-14.9646
-14.2363
-12.7483
-10.4728
-7.44135
-3.75635
0.403394
4.7874
9.08849
12.9679
16.0879
18.1484
18.9222
18.2848
16.2331
12.8913
8.5017
3.40223
-2.0076
-7.30716
-12.0971
-16.0383
-18.8826
-20.4926
-20.8478
-20.0383
-18.2464
-15.7199
-12.7401
-9.58967
-6.52336
-3.7453
-1.39493
0.457606
1.80717
2.70193
3.22677
3.48455
3.57807
3.59501
3.59772
3.61874
3.66202
3.70917
3.72918
3.68971
3.56811
3.36003
3.08454
2.78467
2.52353
2.37641
2.4201
2.72105
3.32395
4.24264
5.45463
6.90015
8.48611
10.0945
11.594
12.8544
13.7595
14.2207
14.185
13.641
12.6185
11.1839
9.4318
7.47321
5.42254
3.3847
1.4438
-0.345231
-1.96121
-3.41694
-4.75517
-6.04072
-7.34984
-8.75794
-10.3269
-12.093
-14.0558
-16.1671
-18.3211
-20.3428
-21.9766
-22.8767
-22.6029
-20.629
-16.37
-9.23519
1.29108
15.5455
33.5706
55.0076
79.0235
104.293
129.057
151.252
168.726
179.481
181.947
175.215
159.214
134.777
103.606
68.1116
31.1568
-4.26049
-35.3502
-59.8455
-76.2499
-83.9842
-83.4137
-75.7575
-62.895
-47.1001
-30.7414
-15.9899
-4.57114
2.40828
4.54302
2.11556
-4.00351
-12.5222
-21.9336
-30.7326
-37.6138
-41.6263
-42.2704
-39.5272
-33.8245
-25.948
-16.9136
-7.82184
0.287453
6.56097
10.4241
11.6309
10.2697
6.72714
1.61847
-4.3031
-10.2461
-15.4758
-19.3938
-21.5935
-21.8875
-20.3064
-17.0708
-12.544
-7.17193
-1.41928
4.28998
9.62065
14.3579
18.4198
21.8512
24.8008
27.4866
30.1549
33.0386
36.3211
40.1099
44.4225
49.1856
54.2468
59.3955
64.3902
68.987
72.9658
76.1513
78.4253
79.7312
80.07
79.4902
78.074
75.9226
73.1426
69.837
66.0996
62.0141
57.6575
53.1046
48.4331
43.7272
39.0788
34.5853
30.3437
26.4424
22.9517
19.9136
17.3343
15.1789
13.3712
11.7982
10.3193
8.77979
7.0271
4.92771
2.38314
-0.656997
-4.18624
-8.13796
-12.3878
-16.7619
-21.0505
-25.0251
-28.4582
-31.1442
-32.9178
-33.6702
-33.359
-32.0133
-29.7311
-26.6708
-23.0364
-19.0593
-14.9769
-11.0113
-7.35042
-4.13336
-1.44222
0.698243
2.31301
3.46246
4.22351
4.6698
4.8546
4.79971
4.49278
3.8935
2.94773
1.60676
-0.151737
-2.30535
-4.77476
-7.42046
-10.0497
-12.4328
-14.328
-15.5092
-15.7957
-15.0771
-13.3313
-10.6324
-7.14823
-3.12654
1.12714
5.27816
8.99455
11.9789
13.997
14.9016
14.6472
13.2964
11.0135
8.04905
4.71226
1.33719
-1.75535
-4.29449
-6.08982
-7.0513
-7.1954
-6.63634
-5.56348
-4.20811
-2.80449
-1.55118
-0.578842
0.0706345
0.450058
0.697184
1.01078
1.6163
2.72662
4.50372
7.02716
10.2739
14.1119
18.3093
22.5555
26.4948
29.7644
32.0345
33.0454
32.6365
30.7647
27.5103
23.0702
17.7394
11.8832
5.90289
0.198937
-4.86424
-8.9891
-11.968
-13.6965
-14.1764
-13.5085
-11.8762
-9.5226
-6.72416
-3.76277
-0.900603
1.64056
3.69347
5.15216
5.9718
6.16307
5.78411
4.93382
3.75016
2.41626
1.17416
0.342709
0.331876
1.64329
4.84605
10.5203
19.1675
31.0967
46.304
64.3712
84.4104
105.076
124.655
141.236
152.931
158.12
155.694
145.229
127.094
102.447
73.1284
41.4711
10.0367
-18.6712
-42.4838
-59.7985
-69.734
-72.1934
-67.8308
-57.9317
-44.2261
-28.6625
-13.1735
0.536975
11.1608
17.8905
20.4552
19.089
14.4443
7.46554
-0.756493
-9.13044
-16.6922
-22.7019
-26.7027
-28.5383
-28.3324
-26.4379
-23.3639
-19.6937
-16.0028
-12.7878
-10.4122
-9.07537
-8.80315
-9.46123
-10.7859
-12.4279
-14.0024
-15.1401
-15.5326
-14.9686
-13.3555
-10.7275
-7.23598
-3.12796
1.2882
5.68301
9.74835
13.2367
15.9925
17.9716
19.2467
19.998
20.4901
21.0386
21.9689
23.5751
26.0812
29.6111
34.1707
39.644
45.8031
52.3309
58.8545
64.9838
70.3517
74.6522
77.6704
79.3016
79.5579
78.5597
76.5145
73.6841
70.3468
66.7585
63.1195
59.5518
56.0903
52.6896
49.2446
45.6208
41.6898
37.3624
32.6142
27.4983
22.1446
16.7439
11.5211
6.70218
2.48041
-1.01258
-3.72536
-5.69241
-7.02605
-7.89624
-8.50205
-9.03955
-9.67184
-10.5057
-11.5788
-12.8584
-14.2516
-15.6248
-16.8278
-17.7196
-18.1902
-18.1757
-17.6655
-16.6996
-15.3588
-13.7493
-11.9846
-10.1684
-8.38147
-6.67266
-5.05729
-3.52111
-2.02938
-0.539228
0.987012
2.56958
4.20216
5.84716
7.43602
8.8744
10.0516
10.8523
11.1703
10.9205
10.05
8.54594
6.4393
3.80607
0.764533
-2.53003
-5.89306
-9.12058
-12.001
-14.3288
-15.9196
-16.6268
-16.3574
-15.0862
-12.8662
-9.83262
-6.19964
-2.24776
1.69689
5.2905
8.20415
10.1576
10.9504
10.4868
8.79017
6.00625
2.39204
-1.70726
-5.89216
-9.74991
-12.8984
-15.0277
-15.9347
-15.5457
-13.9236
-11.2581
-7.83874
-4.01549
-0.150185
3.4324
6.48737
8.87948
10.5952
11.735
12.4871
13.0866
13.7668
14.7108
16.0121
17.6498
19.4857
21.2821
22.7384
23.5414
23.4188
22.189
19.7975
16.3329
12.0215
7.19947
2.26752
-2.36435
-6.33404
-9.3769
-11.3599
-12.2953
-12.3312
-11.7222
-10.7832
-9.83679
-9.16004
-8.94185
-9.25561
-10.0521
-11.1724
-12.3789
-13.3967
-13.9594
-13.8483
-12.9182
-11.1027
-8.39773
-4.82505
-0.385429
4.98634
11.4492
19.2525
28.6931
40.0336
53.3929
68.6302
85.2499
102.354
118.668
132.637
142.609
147.054
144.807
135.287
118.635
95.7741
68.3421
38.5255
8.80692
-18.3346
-40.7256
-56.7596
-65.5796
-67.1594
-62.2734
-52.3658
-39.3387
-25.2933
-12.2593
-1.95035
4.42549
6.27857
3.66488
-2.76992
-11.9164
-22.3759
-32.6581
-41.3747
-47.4062
-50.0229
-48.9501
-44.3742
-36.8938
-27.4274
-17.0902
-7.0572
1.57121
7.88819
11.2711
11.4369
8.4592
2.74603
-5.01544
-13.9412
-23.0489
-31.3622
-38.0083
-42.2996
-43.7917
-42.3113
-37.9559
-31.065
-22.1704
-11.9319
-1.06747
9.71485
19.7764
28.5937
35.789
41.1447
44.6021
46.2493
46.2989
45.0595
42.9041
40.2377
37.4654
34.9638
33.0562
31.9932
31.9396
32.9684
35.0622
38.1209
41.9762
46.4099
51.1753
56.0171
60.6906
64.976
68.6876
71.6785
73.839
75.0928
75.3897
74.6983
73.0007
70.2887
66.5646
61.845
56.169
49.6073
42.2718
34.3234
25.9752
17.4903
9.17229
1.34903
-5.64949
-11.5174
-16.0004
-18.9216
-20.2019
-19.8729
-18.0791
-15.0696
-11.1785
-6.79603
-2.33371
1.81289
5.29985
7.8646
9.34653
9.69629
8.97314
7.3312
4.9966
2.23891
-0.659708
-3.43383
-5.85942
-7.77141
-9.07307
-9.73682
-9.79749
-9.33984
-8.48228
-7.35949
-6.10585
-4.84163
-3.66302
-2.63657
-1.79777
-1.15341
-0.686543
-0.363136
-0.139305
0.0316867
0.193321
0.380989
0.618607
0.916709
1.27195
1.66791
2.07696
2.46316
2.78577
3.00318
3.07702
2.97591
2.67862
2.17621
1.47294
0.585817
-0.457127
-1.61943
-2.8592
-4.13199
-5.39298
-6.59837
-7.70585
-8.67451
-9.46468
-10.0381
-10.359
-10.3962
-10.1256
-9.53419
-8.6231
-7.41011
-5.9309
-4.23833
-2.39968
-0.492113
1.40324
3.20778
4.85178
6.27969
7.45395
8.35663
8.98905
9.36939
9.52876
9.50633
9.34422
9.08282
8.75714
8.39454
8.01384
7.6258
7.23446
6.83896
6.43549
6.01892
5.58401
5.12604
4.64098
4.12523
3.57523
2.98713
2.35654
1.67862
0.948367
0.161095
-0.686916
-1.59765
-2.57038
-3.60046
-4.67778
-5.78524
-6.89709
-7.97787
-8.98199
-9.85426
-10.5314
-10.9441
-11.0177
-10.671
-9.80984
-8.31476
-6.02345
-2.71183
1.9187
8.23764
16.6555
27.5609
41.2268
57.6969
76.6738
97.437
118.819
139.257
156.93
169.964
176.674
175.819
166.803
149.8
125.784
96.4397
63.9861
30.9253
-0.239429
-27.2771
-48.4605
-62.7246
-69.7385
-69.8862
-64.1667
-54.0315
-41.1861
-27.3804
-14.2173
-2.99777
5.38129
10.471
12.2571
11.0974
7.62393
2.62551
-3.07297
-8.71873
-13.7155
-17.6762
-20.4413
-22.0645
-22.771
-22.8972
-22.8223
-22.9004
-23.4035
-24.4817
-26.1435
-28.2588
-30.5807
-32.7823
-34.5028
-35.3962
-35.176
-33.6525
-30.7566
-26.5503
-21.2224
-15.0705
-8.4706
-1.83918
4.40994
9.90884
14.3745
17.6397
19.6712
20.5741
20.5804
20.022
19.2932
18.8035
18.93
19.9728
22.12
25.4267
29.8109
35.0658
40.8873
46.9125
52.7639
58.0935
62.6209
66.1603
68.6327
70.0626
70.5598
70.2893
69.4361
68.1688
66.6102
64.8182
62.7814
60.4277
57.6464
54.3172
50.3422
45.6746
40.3398
34.4442
28.1715
21.7663
15.5079
9.67836
4.52873
0.249757
-3.05037
-5.35739
-6.75061
-7.39124
-7.50125
-7.33603
-7.15443
-7.19012
-7.62747
-8.5847
-10.1057
-12.1607
-14.655
-17.4445
-20.354
-23.1971
-25.7947
-27.9893
-29.6542
-30.6978
-31.0635
-30.726
-29.6865
-27.9688
-25.6163
-22.6913
-19.2767
-15.4781
-11.425
-7.27088
-3.1889
0.635556
4.01609
6.77917
8.77888
9.91077
10.1227
9.42116
7.87156
5.59289
2.74632
-0.480203
-3.88948
-7.29195
-10.5192
-13.4319
-15.9218
-17.9072
-19.3249
-20.1208
-20.2428
-19.6386
-18.259
-16.0682
-13.0579
-9.26383
-4.77932
0.235878
5.55547
10.8958
15.9346
20.3363
23.7825
26.0012
26.7939
26.0546
23.7806
20.0743
15.1363
9.25182
2.77283
-3.90259
-10.3519
-16.1501
-20.8929
-24.2193
-25.8349
-25.5344
-23.2219
-18.9257
-12.8064
-5.1554
3.61776
13.0094
22.4561
31.376
39.2147
45.4896
49.8283
51.9975
51.9183
49.6668
45.4612
39.6364
32.6105
24.8472
16.8182
8.96941
1.69296
-4.69232
-9.95283
-13.9442
-16.6092
-17.9699
-18.1172
-17.1974
-15.3982
-12.9339
-10.032
-6.91995
-3.81386
-0.908848
1.62853
3.66551
5.1064
5.89437
6.01299
5.48908
4.39859
2.87668
1.13234
-0.534395
-1.71644
-1.89191
-0.433094
3.35888
10.1871
20.6587
35.1585
53.713
75.8705
100.625
126.411
151.194
172.641
188.387
196.327
194.929
183.479
162.247
132.522
96.5064
57.0925
17.5353
-18.9223
-49.4237
-71.8202
-84.8974
-88.4782
-83.3953
-71.3393
-54.6108
-35.8116
-17.5184
-1.98189
9.11374
14.8033
14.8938
9.9191
1.00796
-10.3088
-22.3249
-33.3877
-42.0997
-47.4722
-49.0133
-46.7476
-41.1697
-33.1429
-23.7617
-14.1977
-5.54892
1.28787
5.70952
7.45434
6.60421
3.54467
-1.10819
-6.60181
-12.1489
-17.0233
-20.6394
-22.6061
-22.7518
-21.1197
-17.9365
-13.5619
-8.42446
-2.95695
2.4637
7.56165
12.1884
16.3275
20.0787
23.6254
27.191
30.9924
35.1964
39.8878
45.0507
50.5673
56.2327
61.7823
66.9277
71.396
74.9651
77.4919
78.9296
79.3309
78.8386
77.6648
76.0616
74.287
72.5716
71.0895
69.9364
69.1187
68.5538
68.0814
67.4847
66.5183
64.9408
62.546
59.191
54.8175
49.4623
43.2577
36.4204
29.2308
22.0054
15.0648
8.70249
3.15688
-1.40976
-4.92326
-7.39961
-8.9374
-9.70206
-9.90424
-9.77527
-9.54231
-9.40612
-9.52331
-9.99454
-10.8593
-12.0969
-13.6336
-15.3533
-17.112
-18.7534
-20.1238
-21.0869
-21.5342
-21.3941
-20.6359
-19.2713
-17.3521
-14.9654
-12.2264
-9.26987
-6.24117
-3.28626
-0.542864
1.86781
3.8478
5.32748
6.26866
6.6657
6.54464
5.96045
4.9927
3.73982
2.31238
0.825706
-0.607551
-1.88462
-2.91897
-3.64555
-4.02445
-4.04285
-3.71496
-3.08007
-2.19867
-1.14697
-0.0103192
1.12382
2.1728
3.06471
3.74295
4.16885
4.32245
4.20138
3.81832
3.19751
2.37094
1.37478
0.246703
-0.975707
-2.25524
-3.55413
-4.83232
-6.04538
-7.14274
-8.06704
-8.75497
-9.14005
-9.1572
-8.74872
-7.87088
-6.50012
-4.638
-2.31398
0.414357
3.46382
6.73056
10.0967
13.4379
16.6312
19.5616
22.1278
24.2461
25.8527
26.9037
27.3748
27.2589
26.5641
25.3116
23.5345
21.2773
18.5971
15.565
12.268
8.81057
5.3139
1.91399
-1.24375
-4.01269
-6.25597
-7.85927
-8.74421
-8.88039
-8.29434
-7.07348
-5.36383
-3.3609
-1.29394
0.595214
2.0768
2.95906
3.113
2.49449
1.1625
-0.706476
-2.80795
-4.70378
-5.82439
-5.48439
-2.91925
2.64971
11.9186
25.377
43.1708
64.9763
89.9143
116.533
142.876
166.649
185.452
197.075
199.791
192.614
175.472
149.277
115.861
77.7981
38.1284
0.0212372
-33.5743
-60.248
-78.3755
-87.2633
-87.1784
-79.2641
-65.3574
-47.7368
-28.836
-10.9593
3.96449
14.5652
20.1323
20.6291
16.6266
9.17072
-0.393603
-10.6171
-20.1334
-27.8168
-32.8944
-35.0036
-34.1928
-30.8714
-25.7209
-19.5805
-13.3258
-7.75438
-3.49261
-0.933181
-0.207088
-1.19097
-3.54508
-6.77454
-10.304
-13.5554
-16.0197
-17.3132
-17.2139
-15.6754
-12.8176
-8.8972
-4.26482
0.687731
5.58067
10.0943
14.0059
17.212
19.7326
21.7001
23.3334
24.9014
26.6834
28.9288
31.8236
35.4668
39.8595
44.9069
50.4324
56.2014
61.9501
67.4157
72.3636
76.6085
80.0263
82.5572
84.199
84.9936
85.0093
84.3214
82.9958
81.0765
78.581
75.5021
71.8165
67.4992
62.5393
56.9563
50.8127
44.2207
37.3422
30.3809
23.5677
17.1402
11.321
6.2948
2.18977
-0.936067
-3.10085
-4.39691
-4.98094
-5.05762
-4.85843
-4.61826
-4.55221
-4.83518
-5.58628
-6.85937
-8.64054
-10.8523
-13.364
-16.0061
-18.5883
-20.918
-22.8179
-24.1416
-24.7852
-24.6943
-23.8673
-22.3526
-20.2432
-17.6672
-14.7759
-11.731
-8.69162
-5.80264
-3.18446
-0.926175
0.918086
2.32917
3.31942
3.92619
4.20334
4.21174
4.01001
3.64682
3.15561
2.55256
1.83792
1.00069
0.0256824
-1.09786
-2.3677
-3.76145
-5.2321
-6.70728
-8.09259
-9.27894
-10.1531
-10.6101
-10.5663
-9.97089
-8.8146
-7.13438
-5.01319
-2.575
0.0246563
2.61125
5.00576
7.03931
8.56662
9.47705
9.7027
9.22328
8.06815
6.31563
4.08998
1.55585
-1.08993
-3.62952
-5.83822
-7.50107
-8.43084
-8.48551
-7.58337
-5.71338
-2.93897
0.605701
4.72713
9.19044
13.7415
18.1304
22.1318
25.5609
28.2812
30.2044
31.2849
31.5093
30.8862
29.4378
27.1972
24.2104
20.5439
16.294
11.5971
6.63418
1.62976
-3.15889
-7.461
-11.0185
-13.6153
-15.1059
-15.4369
-14.6595
-12.9287
-10.4895
-7.65195
-4.75667
-2.13784
-0.0866108
1.17937
1.53758
0.971993
-0.424732
-2.45541
-4.82494
-7.14595
-8.94236
-9.6533
-8.64404
-5.2336
1.25097
11.388
25.5448
43.7453
65.5468
89.9562
115.418
139.895
161.047
176.495
184.134
182.446
170.766
149.44
119.853
84.3154
45.8102
7.64426
-26.9478
-55.1902
-75.0862
-85.6292
-86.8767
-79.8838
-66.5114
-49.1428
-30.3539
-12.5848
2.1433
12.4307
17.6012
17.7002
13.3987
5.82568
-3.63984
-13.5855
-22.7597
-30.2197
-35.4177
-38.22
-38.865
-37.8714
-35.9162
-33.7039
-31.846
-30.7682
-30.6564
-31.4464
-32.8541
-34.4389
-35.6871
-36.1024
-35.2876
-33.0083
-29.227
-24.1084
-17.994
-11.3526
-4.71556
1.39387
6.52698
10.3631
12.7441
13.6871
13.3751
12.1282
10.3612
8.53237
7.09077
6.42806
6.83932
8.49673
11.4377
15.5676
20.6755
26.4604
32.5642
38.6088
44.232
49.1203
53.0357
55.8343
57.4744
58.0159
57.6082
56.4702
54.8621
53.0544
51.2953
49.7818
48.6373
47.8985
47.5134
47.3506
47.2188
46.8924
46.1422
44.7646
42.6064
39.5821
35.6822
30.9709
25.5766
19.6752
13.4713
7.17825
1.00088
-4.87855
-10.3096
-15.1789
-19.4114
-22.9695
-25.8498
-28.0791
-29.7098
-30.8141
-31.4773
-31.7898
-31.8375
-31.6918
-31.3988
-30.9716
-30.3853
-29.578
-28.458
-26.917
-24.85
-22.1771
-18.8652
-14.9471
-10.5318
-5.80589
-1.02307
3.51759
7.50199
10.6368
12.6858
13.5011
13.0452
11.4004
8.76292
5.4239
1.73775
-1.91672
-5.17799
-7.74082
-9.38787
-10.0101
-9.61362
-8.3137
-6.31562
-3.88698
-1.3244
1.08098
3.075
4.46601
5.14193
5.0778
4.33394
3.04517
1.40312
-0.366713
-2.03062
-3.37262
-4.21826
-4.45424
-4.04177
-3.02269
-1.51731
0.285964
2.14888
3.80813
5.0049
5.5166
5.1873
3.95332
1.86016
-0.932317
-4.15829
-7.46819
-10.4629
-12.7366
-13.923
-13.7405
-12.029
-8.77534
-4.12227
1.63943
8.09634
14.7521
21.077
26.562
30.7709
33.3835
34.2261
33.2858
30.7062
26.7667
21.8483
16.3895
10.8395
5.61191
1.04582
-2.62247
-5.27511
-6.91435
-7.65121
-7.68292
-7.26225
-6.66219
-6.14009
-5.90523
-6.09375
-6.75393
-7.84389
-9.24184
-10.7675
-12.2112
-13.3654
-14.0536
-14.1489
-13.5792
-12.3151
-10.3412
-7.61631
-4.03061
0.627326
6.68108
14.5429
24.651
37.3696
52.8668
70.99
91.1689
112.372
133.14
151.693
166.124
174.627
175.754
168.637
153.154
130.004
100.678
67.3157
32.4847
-1.10892
-30.9273
-54.8859
-71.5767
-80.4007
-81.5923
-76.1363
-65.5944
-51.8693
-36.9431
-22.6298
-10.3723
-1.11168
4.76277
7.38183
7.29759
5.33838
2.44369
-0.495107
-2.76605
-3.92439
-3.82943
-2.6311
-0.714213
1.387
3.08839
3.85404
3.27952
1.1503
-2.53019
-7.54393
-13.4898
-19.8369
-25.9912
-31.3658
-35.4467
-37.8452
-38.3329
-36.8548
-33.5225
-28.5876
-22.4022
-15.3718
-7.90741
-0.384288
6.88817
13.6822
19.8527
25.3264
30.0828
34.1319
37.4953
40.1935
42.2419
43.6562
44.4642
44.7207
44.5212
44.0092
43.3758
42.8482
42.6697
43.0731
44.2509
46.3287
49.3437
53.2341
57.8389
62.9105
68.1364
73.1686
77.6553
81.272
83.7476
84.8834
84.5627
82.7528
79.4989
74.9127
69.1583
62.4373
54.975
47.0075
38.7729
30.5026
22.4153
14.7112
7.5665
1.1279
-4.49278
-9.22341
-13.0352
-15.9441
-18.0096
-19.3298
-20.0334
-20.2681
-20.1871
-19.9343
-19.6307
-19.3629
-19.1758
-19.0703
-19.0062
-18.9109
-18.692
-18.2534
-17.5121
-16.4131
-14.9418
-13.1304
-11.0577
-8.84321
-6.63461
-4.59062
-2.86157
-1.56969
-0.791756
-0.546511
-0.788585
-1.41009
-2.24998
-3.11047
-3.77872
-4.05168
-3.76108
-2.79568
-1.11807
1.22644
4.11015
7.33287
10.6406
13.7511
16.383
18.2864
19.2692
19.2192
18.1161
16.0354
13.1409
9.66976
5.90932
2.17043
-1.24079
-4.04947
-6.03443
-7.04497
-7.01126
-5.94831
-3.95389
-1.2013
2.07276
5.58435
9.02227
12.0711
14.4359
15.8682
16.189
15.3086
13.2397
10.1004
6.10872
1.56514
-3.17299
-7.72411
-11.7178
-14.8287
-16.8054
-17.4902
-16.8279
-14.8643
-11.7343
-7.64309
-2.84293
2.38993
7.77645
13.0514
17.9746
22.338
25.9681
28.7274
30.5143
31.2648
30.9545
29.6013
27.2674
24.0604
20.1301
15.6618
10.8647
5.95712
1.14964
-3.37167
-7.45858
-11.0087
-13.9665
-16.3175
-18.0765
-19.2727
-19.9348
-20.0789
-19.7027
-18.787
-17.3053
-15.2379
-12.5895
-9.40431
-5.77279
-1.82741
2.27763
6.40173
10.4643
14.4934
18.6638
23.3099
28.8999
35.9666
44.9978
56.302
69.875
85.2986
101.699
117.783
131.96
142.529
147.915
146.907
138.858
123.824
102.603
76.6737
48.0402
19.0034
-8.10688
-31.2023
-48.6713
-59.5487
-63.6003
-61.3135
-53.8004
-42.6305
-29.6173
-16.5903
-5.18058
3.35331
8.24016
9.24259
6.63455
1.11891
-6.29965
-14.4665
-22.2327
-28.5953
-32.8064
-34.4415
-33.4218
-29.9938
-24.6713
-18.1512
-11.2151
-4.62877
0.947636
5.03034
7.35594
7.89623
6.84356
4.57053
1.56991
-1.61667
-4.47219
-6.57033
-7.62584
-7.52316
-6.3199
-4.22552
-1.55906
1.30765
4.0124
6.26154
7.87703
8.82499
9.22231
9.32071
9.47104
10.0729
11.5167
14.1261
18.1078
23.517
30.2403
38.0015
46.387
54.8885
62.9584
70.0702
75.7757
79.7537
81.8435
82.0588
80.5818
77.7375
73.9522
69.7018
65.4552
61.6221
58.5087
56.289
54.9923
54.5091
54.6119
54.9896
55.2879
55.1531
54.2722
52.4069
49.4169
45.2719
40.0515
33.9346
27.1795
20.0979
13.026
6.29619
0.210405
-4.98091
-9.09434
-12.0226
-13.7372
-14.286
-13.7859
-12.4111
-10.3802
-7.9402
-5.34995
-2.86324
-0.712089
0.90894
1.85663
2.05017
1.47822
0.200934
-1.65392
-3.90126
-6.31506
-8.6497
-10.6644
-12.1486
-12.9441
-12.9634
-12.1995
-10.727
-8.69438
-6.30659
-3.8024
-1.42713
0.594731
2.08412
2.92616
3.08111
2.58616
1.54839
0.129831
-1.47325
-3.05412
-4.41954
-5.41084
-5.91991
-5.89832
-5.35891
-4.37023
-3.04514
-1.52553
0.0344762
1.48459
2.6919
3.55087
3.98943
3.97185
3.49911
2.60781
1.36803
-0.119541
-1.728
-3.31054
-4.70956
-5.76872
-6.3475
-6.3368
-5.67395
-4.35447
-2.43863
-0.0509012
2.62829
5.3783
7.95994
10.1407
11.7203
12.5536
12.568
11.7723
10.2571
8.18626
5.77957
3.29033
0.979331
-0.911324
-2.18192
-2.69402
-2.38301
-1.2635
0.572616
2.96495
5.69941
8.52749
11.1885
13.4328
15.0434
15.8552
15.7683
14.7553
12.8625
10.2026
6.9438
3.29208
-0.527117
-4.28879
-7.78643
-10.847
-13.3417
-15.1916
-16.3682
-16.8898
-16.8132
-16.2231
-15.2213
-13.9135
-12.4001
-10.7658
-9.07321
-7.35573
-5.60987
-3.78481
-1.7679
0.632461
3.70204
7.82608
13.4746
21.1591
31.3557
44.4009
60.3722
78.9788
99.4867
120.705
141.045
158.663
171.661
178.33
177.391
168.207
150.91
126.448
96.5115
63.3723
29.6368
-2.0423
-29.2607
-50.1253
-63.4491
-68.8571
-66.791
-58.4165
-45.451
-29.9344
-13.9775
0.480973
11.879
19.1747
21.9161
20.2341
14.766
6.52552
-3.26085
-13.3263
-22.5231
-29.9501
-35.0349
-37.5652
-37.6701
-35.7603
-32.4379
-28.3924
-24.2969
-20.7197
-18.0591
-16.5096
-16.0587
-16.5128
-17.5438
-18.7495
-19.7178
-20.0853
-19.5835
-18.069
-15.5335
-12.0952
-7.97534
-3.46285
1.12649
5.49091
9.37847
12.614
15.1147
16.893
18.0486
18.75
19.2101
19.658
20.3121
21.3559
22.9211
25.0783
27.836
31.1466
34.9189
39.0327
43.3548
47.7531
52.1062
56.3103
60.2792
63.9419
67.236
70.1005
72.4687
74.2639
75.3984
75.7766
75.3031
73.8937
71.4881
68.0634
63.6442
58.3096
52.1935
45.4799
38.3908
31.1709
24.0679
17.3135
11.1054
5.59309
0.870166
-3.02824
-6.12116
-8.47237
-10.1774
-11.3484
-12.1001
-12.5371
-12.745
-12.7862
-12.6994
-12.5032
-12.2019
-11.7932
-11.2747
-10.6502
-9.93253
-9.14524
-8.32058
-7.49638
-6.7114
-6.00059
-5.3911
-4.89973
-4.53221
-4.28415
-4.14292
-4.08957
-4.09967
-4.14269
-4.17996
-4.16212
-4.02746
-3.70265
-3.10706
-2.16117
-0.798449
1.02069
3.29531
5.97335
8.94653
12.0526
15.0857
17.8137
20.0019
21.4385
21.9602
21.473
19.9667
17.5194
14.2932
10.5193
6.47596
2.46181
-1.23358
-4.35684
-6.71354
-8.18379
-8.72943
-8.39258
-7.28646
-5.58029
-3.48063
-1.21136
1.00547
2.96646
4.50044
5.47855
5.82084
5.49966
4.54018
3.01801
1.05407
-1.19337
-3.53948
-5.78606
-7.73645
-9.21122
-10.0632
-10.1902
-9.54488
-8.13851
-6.04068
-3.37247
-0.294849
3.00679
6.34047
9.52562
12.4095
14.8799
16.8732
18.3759
19.4206
20.0764
20.4344
20.591
20.6317
20.6159
20.567
20.4674
20.261
19.8614
19.1658
18.0726
16.4998
14.4023
11.7844
8.70737
5.28816
1.69171
-1.88423
-5.22909
-8.14202
-10.454
-12.0466
-12.8648
-12.9223
-12.2983
-11.1249
-9.5679
-7.79932
-5.96436
-4.14375
-2.31376
-0.309008
2.20449
5.73533
10.9403
18.5565
29.2898
43.6672
61.8741
83.6063
107.972
133.473
158.094
179.484
195.231
203.181
201.753
190.196
168.755
138.702
102.228
62.2115
21.8991
-15.4714
-47.036
-70.6193
-84.9549
-89.7883
-85.8512
-74.7201
-58.5812
-39.9378
-21.3007
-4.9005
7.54336
14.9738
17.0542
14.1356
7.14331
-2.59413
-13.5489
-24.2015
-33.2264
-39.6357
-42.8661
-42.8048
-39.7571
-34.365
-27.4931
-20.0969
-13.094
-7.25194
-3.10651
-0.916039
-0.655492
-2.04628
-4.61513
-7.77188
-10.8946
-13.4111
-14.8663
-14.9688
-13.6128
-10.8738
-6.98306
-2.2829
2.82624
7.94207
12.711
16.8677
20.2587
22.8495
24.7157
26.0201
26.982
27.8418
28.828
30.1292
31.8757
34.1306
36.8921
40.1029
43.6664
47.4648
51.3762
55.2893
59.1124
62.7771
66.2359
69.4561
72.4098
75.0639
77.3711
79.2639
80.6526
81.4272
81.4649
80.6393
78.833
75.9516
71.9372
66.7809
60.5335
53.3116
45.2996
36.7451
27.9491
19.2491
10.997
3.53359
-2.83943
-7.88607
-11.459
-13.5156
-14.1253
-13.4656
-11.8081
-9.49331
-6.89965
-4.40683
-2.36007
-1.03813
-0.629109
-1.21661
-2.77733
-5.18972
-8.25174
-11.705
-15.2618
-18.6323
-21.5488
-23.7855
-25.1737
-25.6104
-25.062
-23.5628
-21.2095
-18.1511
-14.5769
-10.7017
-6.75027
-2.94172
0.524629
3.48142
5.8022
7.40688
8.26335
8.38575
7.82997
6.68723
5.07676
3.13821
1.02435
-1.10601
-3.09536
-4.79548
-6.07659
-6.83747
-7.0157
-6.59668
-5.61961
-4.17858
-2.41777
-0.520129
1.30949
2.86524
3.96256
4.45905
4.27123
3.38479
1.85711
-0.188365
-2.57504
-5.09187
-7.51536
-9.63237
-11.2609
-12.2671
-12.576
-12.1763
-11.1178
-9.50355
-7.47636
-5.203
-2.85669
-0.600358
1.42781
3.12527
4.43176
5.33122
5.84938
6.04727
6.01159
5.84278
5.64211
5.49904
5.48063
5.62416
5.93452
6.3865
6.93191
7.51035
8.06164
8.53772
8.91176
9.18249
9.3729
9.52309
9.67863
9.87643
10.1311
10.4245
10.7012
10.8705
10.8164
10.4133
9.5443
8.12186
6.10406
3.50656
0.406817
-3.05939
-6.70899
-10.3284
-13.6935
-16.5896
-18.8284
-20.2577
-20.7628
-20.256
-18.6563
-15.8617
-11.7204
-6.01045
1.56123
11.3312
23.6181
38.6306
56.3574
76.4603
98.196
120.391
141.489
159.671
173.043
179.87
178.816
169.161
150.946
125.04
93.0972
57.4075
20.6704
-14.2934
-44.8473
-68.8226
-84.7453
-91.9757
-90.7476
-82.1025
-67.7332
-49.7587
-30.4621
-12.0267
3.69877
15.3773
22.2867
24.3411
22.0347
16.3218
8.45178
-0.21484
-8.38655
-14.9947
-19.3048
-20.9759
-20.0654
-16.9837
-12.4094
-7.17845
-2.1621
1.84921
4.24427
4.66072
3.01984
-0.475281
-5.37579
-11.0509
-16.7707
-21.7963
-25.4676
-27.2762
-26.9179
-24.3172
-19.6239
-13.1831
-5.48328
2.90903
11.4199
19.5337
26.8464
33.1
38.1949
42.18
45.2245
47.5747
49.5057
51.2734
53.0748
55.023
57.1385
59.3593
61.5647
63.6104
65.3654
66.7451
67.7344
68.3947
68.8555
69.2904
69.883
70.7881
72.0961
73.806
75.8125
77.909
79.807
81.1685
81.6469
80.9298
78.7791
75.0607
69.7619
62.9944
54.9814
46.0346
36.5215
26.8298
17.3331
8.36079
0.176531
-7.03459
-13.1691
-18.1996
-22.1629
-25.1427
-27.2509
-28.6087
-29.3308
-29.5126
-29.2239
-28.5073
-27.3819
-25.8514
-23.9146
-21.5778
-18.8655
-15.8296
-12.5541
-9.15571
-5.77946
-2.58928
0.244529
2.56028
4.22029
5.12516
5.22532
4.52879
3.10417
1.07874
-1.3686
-4.01888
-6.62851
-8.94754
-10.7394
-11.8007
-11.9797
-11.1919
-9.43102
-6.77441
-3.38234
0.510373
4.60973
8.5848
12.0955
14.8242
16.5076
16.9666
16.1294
14.0449
10.8834
6.92434
2.52949
-1.89368
-5.93637
-9.23433
-11.5096
-12.6023
-12.4888
-11.2816
-9.21334
-6.6049
-3.82286
-1.23213
0.849984
2.19219
2.67521
2.30253
1.19498
-0.429166
-2.28541
-4.06082
-5.45331
-6.20722
-6.14104
-5.1643
-3.28229
-0.58911
2.74914
6.51783
10.4802
14.4032
18.0787
21.339
24.0642
26.1824
27.6632
28.5073
28.7346
28.3729
27.4495
25.9877
24.0074
21.5301
18.5859
15.2219
11.5087
7.54447
3.45457
-0.613085
-4.49667
-8.03216
-11.0665
-13.4702
-15.148
-16.0465
-16.1564
-15.5119
-14.1856
-12.2815
-9.92542
-7.25701
-4.42052
-1.55692
1.20437
3.75535
6.02216
7.98201
9.68397
11.2711
12.9989
15.2421
18.482
23.2647
30.1297
39.5105
51.6191
66.3359
83.1275
101.016
118.618
134.256
146.14
152.59
152.27
144.404
128.922
106.534
78.6936
47.4656
15.3125
-15.1759
-41.5722
-61.8822
-74.7621
-79.6549
-76.8309
-67.3298
-52.8142
-35.3567
-17.1889
-0.444135
13.0742
22.0724
25.8765
24.4623
18.4085
8.78177
-3.02605
-15.4866
-27.1248
-36.6869
-43.2682
-46.3881
-46.008
-42.4952
-36.5407
-29.0462
-20.996
-13.3305
-6.83741
-2.07148
0.689756
1.45226
0.476625
-1.7791
-4.73506
-7.77267
-10.3142
-11.8892
-12.1817
-11.0525
-8.53838
-4.82829
-0.223017
4.91606
10.2212
15.3682
20.1153
24.3272
27.9809
31.1548
34.0036
36.7237
39.5151
42.5456
45.9223
49.6747
53.75
58.0219
62.3092
66.4023
70.0922
73.1982
75.5914
77.2094
78.0625
78.2292
77.8437
77.0761
76.1083
75.1092
74.2102
73.4865
72.9433
72.511
72.0487
71.3566
70.197
68.3216
65.5027
61.5648
56.4127
50.0526
42.6021
34.2888
25.4352
16.4332
7.70853
-0.318514
-7.27311
-12.8611
-16.8959
-19.313
-20.1726
-19.648
-18.004
-15.5657
-12.6845
-9.70316
-6.92471
-4.58881
-2.85693
-1.80745
-1.44012
-1.68818
-2.43565
-3.5369
-4.8357
-6.18125
-7.43981
-8.50133
-9.28146
-9.72016
-9.77858
-9.43572
-8.68645
-7.54136
-6.0285
-4.19633
-2.11637
0.11559
2.3814
4.54611
6.4676
8.00952
9.0562
9.52768
9.39256
8.67646
7.46415
5.89392
4.14382
2.4104
0.882242
-0.288476
-1.01191
-1.27932
-1.17065
-0.84817
-0.535726
-0.485613
-0.937514
-2.07581
-3.99231
-6.66104
-9.92995
-13.5317
-17.1129
-20.2773
-22.6374
-23.8669
-23.7453
-22.1899
-19.2695
-15.1986
-10.3132
-5.03145
0.194537
4.92982
8.8041
11.5494
13.0242
13.2214
12.2604
10.3651
7.83153
4.98994
2.16579
-0.354562
-2.35016
-3.68098
-4.29195
-4.20628
-3.51045
-2.33417
-0.828797
0.852494
2.57039
4.20961
5.68334
6.93276
7.92287
8.63645
9.06765
9.21658
9.08563
8.67794
7.99761
7.05135
5.85073
4.41431
2.76902
0.950509
-0.997985
-3.02794
-5.0889
-7.13234
-9.11554
-11.0048
-12.7773
-14.4219
-15.9368
-17.3257
-18.591
-19.7237
-20.6898
-21.4125
-21.7512
-21.4795
-20.2672
-17.6733
-13.1596
-6.13199
3.98504
17.6439
35.0494
56.0354
79.9649
105.683
131.544
155.516
175.373
188.943
194.387
190.464
176.74
153.708
122.796
86.2422
46.8743
7.80183
-27.9275
-57.663
-79.4334
-92.1389
-95.6337
-90.6888
-78.8496
-62.2082
-43.1268
-23.9487
-6.73406
6.94778
16.1487
20.584
20.5878
16.997
10.981
3.84792
-3.14911
-8.97811
-12.9486
-14.7737
-14.57
-12.8008
-10.1745
-7.51381
-5.61902
-5.14126
-6.48539
-9.75315
-14.7325
-20.9319
-27.6529
-34.0875
-39.4281
-42.9723
-44.2095
-42.8799
-38.9986
-32.8437
-24.9141
-15.8608
-6.40659
2.73927
10.9576
17.7793
22.9234
26.3091
28.0436
28.3894
27.7163
26.4465
24.9989
23.7411
22.9536
22.8088
23.3674
24.5896
26.3586
28.5111
30.8708
33.2784
35.6151
37.8163
39.8738
41.8282
43.7512
45.7239
47.8113
50.0403
52.382
54.7429
56.9654
58.8384
60.117
60.5488
59.9035
58.0027
54.7453
50.1259
44.2433
37.2979
29.578
21.4366
13.2602
5.43472
-1.68891
-7.82509
-12.7766
-16.448
-18.848
-20.0818
-20.3335
-19.8424
-18.8749
-17.696
-16.5432
-15.6053
-15.007
-14.802
-14.9732
-15.4399
-16.0722
-16.7098
-17.1843
-17.3423
-17.0676
-16.299
-15.0426
-13.375
-11.4372
-9.41865
-7.5327
-5.98649
-4.94934
-4.52434
-4.72771
-5.47983
-6.60977
-7.87379
-8.9856
-9.65488
-9.62869
-8.73014
-6.88865
-4.15707
-0.713018
3.15655
7.08562
10.6707
13.5181
15.2915
15.7526
14.7916
12.4416
8.87765
4.39911
-0.601705
-5.68066
-10.3879
-14.3137
-17.1282
-18.6121
-18.6735
-17.3513
-14.8034
-11.2847
-7.11494
-2.64398
1.78378
5.86
9.33587
12.0364
13.8657
14.803
14.8932
14.2319
12.95
11.1978
9.13168
6.90348
4.65339
2.50562
0.566295
-1.07697
-2.35466
-3.21455
-3.62076
-3.55292
-3.00538
-1.98661
-0.518609
1.36332
3.61067
6.16152
8.94018
11.8571
14.8091
17.6807
20.3467
22.6762
24.5386
25.8106
26.385
26.1789
25.1425
23.266
20.5847
17.1808
13.1819
8.75635
4.10466
-0.551752
-4.9839
-8.96986
-12.3096
-14.8391
-16.4429
-17.0641
-16.7111
-15.4598
-13.4517
-10.8851
-8.00011
-5.05596
-2.30012
0.0700163
1.95052
3.37479
4.5499
5.87554
7.93461
11.4466
17.1801
25.8289
37.866
53.3987
72.0533
92.9176
114.563
135.153
152.637
164.996
170.514
168.031
157.129
138.233
112.595
82.1712
49.4044
16.9435
-12.6587
-37.2294
-55.2029
-65.7646
-68.8966
-65.3253
-56.384
-43.8141
-29.5351
-15.413
-3.05814
6.32732
12.0371
13.8804
12.138
7.46745
0.773893
-6.93165
-14.6692
-21.6046
-27.1301
-30.9063
-32.8636
-33.1688
-32.1666
-30.3053
-28.0594
-25.8597
-24.0375
-22.7909
-22.1725
-22.0989
-22.3777
-22.747
-22.92
-22.6293
-21.6644
-19.8984
-17.3017
-13.9411
-9.96677
-5.58877
-1.04764
3.41742
7.59812
11.3413
14.565
17.2662
19.5182
21.4608
23.283
25.2003
27.4294
30.1614
33.5368
37.6239
42.4033
47.7605
53.4885
59.3008
64.8549
69.7854
73.7423
76.4313
77.6508
77.3209
75.4992
72.3807
68.2821
63.609
58.8127
54.3392
50.5782
47.8182
46.2123
45.761
46.3112
47.5734
49.1545
50.6015
51.4516
51.2842
49.7676
46.6963
42.0158
35.8298
28.3931
20.0861
11.3784
2.78208
-5.19853
-12.1154
-17.6186
-21.4866
-23.6423
-24.1536
-23.2189
-21.1391
-18.2817
-15.039
-11.7871
-8.84977
-6.46987
-4.79214
-3.85755
-3.60908
-3.90736
-4.55374
-5.31761
-5.96497
-6.2854
-6.11493
-5.35333
-3.97474
-2.03115
0.351384
2.98356
5.63015
8.033
9.93781
11.1226
11.4244
10.7618
9.14861
6.69762
3.61247
0.167965
-3.31912
-6.52537
-9.15781
-10.9878
-11.8769
-11.7916
-10.8042
-9.08007
-6.85322
-4.39404
-1.97381
0.168657
1.85379
2.97806
3.5192
3.53
3.12257
2.44604
1.66155
0.918091
0.332647
-0.0230157
-0.127729
-0.00838094
0.269444
0.615727
0.932714
1.13148
1.146
0.942941
0.526101
-0.0647566
-0.760028
-1.47019
-2.09783
-2.55
-2.7491
-2.64107
-2.19969
-1.42705
-0.349959
0.986365
2.52661
4.21399
5.9979
7.83959
9.71491
11.6139
13.5376
15.4918
17.4792
19.4907
21.497
23.4413
25.2353
26.7599
27.8698
28.4055
28.2083
27.1401
25.1041
22.0638
18.0583
13.21
7.7249
1.88233
-3.98341
-9.50916
-14.3339
-18.1318
-20.6432
-21.7024
-21.2561
-19.374
-16.2473
-12.1758
-7.54334
-2.78104
1.67852
5.45616
8.28554
10.0722
10.9439
11.2828
11.7266
13.1282
16.4691
22.7252
32.6998
46.8455
65.1065
86.8145
110.666
134.8
156.972
174.806
186.099
189.116
182.852
167.198
143.002
111.999
76.6316
39.7753
4.41194
-26.7055
-51.3535
-68.0652
-76.2579
-76.25
-69.1689
-56.7703
-41.1929
-24.6869
-9.34847
3.1053
11.4984
15.2791
14.5205
9.84745
2.30324
-6.82058
-16.1674
-24.488
-30.7829
-34.3988
-35.0738
-32.9295
-28.4183
-22.2352
-15.2093
-8.19142
-1.94899
2.91705
6.02777
7.24966
6.68656
4.64455
1.57648
-1.98489
-5.49632
-8.46745
-10.5114
-11.3779
-10.967
-9.32387
-6.61735
-3.10605
0.901977
5.09124
9.17714
12.9365
16.2276
18.9981
21.2817
23.1847
24.8646
26.5056
28.2923
30.3875
32.9134
35.9408
39.4847
43.5068
47.9232
52.6154
57.4431
62.2565
66.9072
71.2564
75.1796
78.5696
81.3362
83.4044
84.7126
85.21
84.8555
83.6168
81.4722
78.4128
74.4471
69.606
63.9471
57.5598
50.5667
43.1238
35.4164
27.6518
20.0491
12.8265
6.18702
0.30489
-4.68666
-8.7047
-11.7219
-13.7675
-14.9231
-15.3151
-15.1025
-14.4637
-13.581
-12.6261
-11.7474
-11.0594
-10.6366
-10.5104
-10.6715
-11.0752
-11.6505
-12.3109
-12.9663
-13.5341
-13.9483
-14.1647
-14.163
-13.9445
-13.5269
-12.9375
-12.206
-11.3584
-10.4138
-9.3837
-8.27408
-7.09024
-5.84205
-4.54925
-3.24471
-1.97493
-0.796715
0.229693
1.05031
1.62819
1.95297
2.047
1.96598
1.79322
1.62797
1.56921
1.69781
2.05997
2.65527
3.43164
4.28868
5.08917
5.67749
5.90216
5.63932
4.81358
3.41299
1.49594
-0.811313
-3.3262
-5.829
-8.08723
-9.88184
-11.032
-11.4154
-10.981
-9.75408
-7.83148
-5.3696
-2.56571
0.364291
3.20891
5.78223
7.94062
9.59344
10.7069
11.301
11.4411
11.2246
10.7663
10.1824
9.57742
9.03358
8.60454
8.31363
8.15621
8.10538
8.11994
8.15308
8.16076
8.10848
7.97573
7.7577
7.46445
7.11769
6.74606
6.37956
6.04423
5.75752
5.52531
5.34069
5.18475
5.029
4.83917
4.57944
4.21667
3.72376
3.08175
2.28047
1.31791
0.198728
-1.06749
-2.4675
-3.9847
-5.59823
-7.28069
-8.99478
-10.6889
-12.2916
-13.7036
-14.7877
-15.3536
-15.1415
-13.806
-10.9091
-5.93084
1.69053
12.4854
26.8464
44.9016
66.3894
90.5635
116.156
141.42
164.262
182.454
193.893
196.889
190.42
174.315
149.344
117.18
80.2536
41.4976
4.02887
-29.1945
-55.6963
-73.7427
-82.5084
-82.1313
-73.651
-58.8463
-39.9941
-19.5853
-0.0339678
16.5846
28.7366
35.5541
36.8706
33.1716
25.4719
15.1417
3.70565
-7.35694
-16.788
-23.6819
-27.5609
-28.3898
-26.5337
-22.6693
-17.6643
-12.4441
-7.86208
-4.59131
-3.04863
-3.35889
-5.36032
-8.64715
-12.641
-16.6794
-20.1087
-22.3693
-23.0619
-21.9891
-19.1682
-14.8152
-9.30526
-3.11622
3.23765
9.27134
14.5869
18.9163
22.1454
24.3167
25.6119
26.3185
26.7842
27.3671
28.3867
30.084
32.5925
35.9264
39.9837
44.5644
49.4006
54.1924
58.6466
62.5121
65.6072
67.8381
69.204
69.7923
69.7623
69.3206
68.6916
68.0858
67.6689
67.5368
67.6972
68.0626
68.4545
68.6199
68.2596
67.0656
64.7626
61.1496
56.1344
49.7554
42.1877
33.7309
24.7804
15.7851
7.19792
-0.574239
-7.21431
-12.5263
-16.4495
-19.0549
-20.5227
-21.1078
-21.0956
-20.7585
-20.3168
-19.912
-19.5943
-19.3264
-19.0014
-18.4715
-17.5824
-16.2073
-14.2768
-11.7993
-8.86933
-5.6641
-2.42672
0.559438
3.0032
4.64018
5.26523
4.75893
3.10476
0.394985
-3.1753
-7.3253
-11.7148
-15.9762
-19.7499
-22.7172
-24.6293
-25.3283
-24.7587
-22.9686
-20.1003
-16.3732
-12.0598
-7.4594
-2.87154
1.42699
5.19959
8.26045
10.4784
11.7754
12.1206
11.524
10.0302
7.71359
4.67714
1.05212
-3.00116
-7.29396
-11.6127
-15.7265
-19.3996
-22.4075
-24.5551
-25.6954
-25.7453
-24.6963
-22.6184
-19.6556
-16.0141
-11.9433
-7.71269
-3.58667
0.198878
3.45622
6.05893
7.94768
9.12837
9.66363
9.65954
9.2496
8.57839
7.78673
6.99975
6.31858
5.81572
5.53369
5.48644
5.66256
6.02974
6.5399
7.13453
7.75013
8.32339
8.79616
9.11981
9.25872
9.19272
8.91798
8.4463
7.80285
7.02234
6.14441
5.20827
4.24761
3.2858
2.33217
1.37956
0.403689
-0.63519
-1.78823
-3.11143
-4.65705
-6.46382
-8.54716
-10.8906
-13.4397
-16.0996
-18.7353
-21.1754
-23.2166
-24.6267
-25.1447
-24.4769
-22.2906
-18.21
-11.8231
-2.70702
9.51959
25.1172
44.1238
66.2489
90.7833
116.553
141.938
164.968
183.499
195.444
199.042
193.116
177.283
152.083
118.991
80.3143
38.9823
-1.76082
-38.7035
-69.0217
-90.5883
-102.199
-103.684
-95.8947
-80.5657
-60.079
-37.1603
-14.5498
5.30743
20.5152
29.8949
33.0537
30.3518
22.7818
11.782
-0.985245
-13.8592
-25.3817
-34.4502
-40.4084
-43.0698
-42.6792
-39.8233
-35.3088
-30.0262
-24.8201
-20.382
-17.1756
-15.4028
-15.0087
-15.7202
-17.1108
-18.678
-19.9225
-20.4189
-19.8684
-18.1292
-15.2218
-11.312
-6.67475
-1.64666
3.42672
8.23983
12.5667
16.286
19.3895
21.9735
24.2159
26.3435
28.5933
31.1754
34.2404
37.8575
42.0046
46.571
51.3723
56.1754
60.7279
64.7902
68.1646
70.7175
72.3933
73.2181
73.2927
72.7783
71.8742
70.7945
69.7431
68.8926
68.3685
68.239
68.5116
69.1357
70.0075
70.9788
71.8659
72.4587
72.532
71.8575
70.2185
67.4279
63.3475
57.9081
51.1268
43.1189
34.1014
24.3865
14.3638
4.47271
-4.83253
-13.122
-20.0285
-25.2807
-28.7273
-30.3491
-30.2573
-28.6793
-25.9322
-22.3895
-18.4422
-14.4624
-10.7693
-7.60522
-5.12049
-3.37049
-2.32312
-1.87537
-1.87629
-2.15289
-2.53574
-2.88089
-3.08599
-3.09882
-2.91803
-2.58649
-2.17879
-1.78493
-1.49284
-1.37204
-1.46085
-1.75872
-2.22463
-2.78158
-3.3265
-3.74403
-3.92238
-3.76901
-3.22432
-2.27137
-0.940732
0.690332
2.50399
4.35266
6.07304
7.50197
8.49217
8.92645
8.72897
7.87286
6.38354
4.33765
1.85794
-0.895762
-3.73852
-6.47458
-8.91271
-10.8815
-12.2431
-12.9048
-12.8259
-12.021
-10.5581
-8.5514
-6.15043
-3.52594
-0.854153
1.69876
3.99056
5.91366
7.40172
8.43178
9.02192
9.22522
9.12084
8.80375
8.37417
7.92809
7.54979
7.30678
7.24741
7.40084
7.77892
8.37925
9.18886
10.1877
11.3513
12.653
14.0636
15.5504
17.0747
18.587
20.0239
21.3037
22.3255
22.9714
23.1128
22.6216
21.3853
19.3237
16.4061
12.6653
8.20636
3.20809
-2.08436
-7.37551
-12.3434
-16.6692
-20.0696
-22.3284
-23.322
-23.0375
-21.5777
-19.1523
-16.0552
-12.6284
-9.21404
-6.09988
-3.46078
-1.30385
0.575175
2.61407
5.47362
9.98482
17.0492
27.4965
41.9144
60.4763
82.8008
107.873
134.059
159.216
180.907
196.682
204.399
202.523
190.376
168.28
137.574
100.5
59.9694
19.2405
-18.4485
-50.2414
-73.9748
-88.3959
-93.2637
-89.3242
-78.1686
-61.9977
-43.3269
-24.6735
-8.26585
4.19204
11.6727
13.8838
11.2315
4.70233
-4.31659
-14.2502
-23.5523
-30.899
-35.3372
-36.3728
-33.9945
-28.6348
-21.0797
-12.3416
-3.51612
4.36008
10.4326
14.1203
15.166
13.6447
9.9313
4.63547
-1.48609
-7.62745
-13.0292
-17.0609
-19.2814
-19.4723
-17.6423
-14.0045
-8.93275
-2.90252
3.57361
10.0087
15.9943
21.2387
25.5869
29.0214
31.6468
33.66
35.3131
36.8728
38.582
40.6291
43.1272
46.105
49.5098
53.2206
57.0682
60.8606
64.4076
67.5436
70.1446
72.1382
73.5062
74.28
74.5302
74.3523
73.8508
73.1227
72.2442
71.2592
70.1734
68.9523
67.5249
65.7912
63.6341
60.9334
57.581
53.4963
48.6386
43.0176
36.699
29.8051
22.5102
15.0307
7.61059
0.50383
-6.04479
-11.8188
-16.6466
-20.4144
-23.0733
-24.6407
-25.1955
-24.8675
-23.8235
-22.2493
-20.3329
-18.2474
-16.1381
-14.1136
-12.2425
-10.5556
-9.05229
-7.71124
-6.50184
-5.39575
-4.37589
-3.44144
-2.60828
-1.90458
-1.3628
-1.00974
-0.856847
-0.893172
-1.08268
-1.367
-1.6734
-1.9267
-2.06302
-2.04242
-1.85795
-1.53898
-1.14776
-0.769538
-0.497745
-0.416752
-0.585208
-1.02292
-1.70364
-2.55515
-3.46684
-4.30367
-4.92455
-5.20233
-5.04244
-4.3976
-3.27634
-1.74436
0.0814757
2.0455
3.97017
5.67529
6.99697
7.80419
8.01113
7.58448
6.54553
4.96729
2.96768
0.699426
-1.66211
-3.93244
-5.93168
-7.49776
-8.49804
-8.83843
-8.46935
-7.38781
-5.63552
-3.29311
-0.471159
2.701
6.08722
9.55581
12.9885
16.286
19.3695
22.1775
24.6599
26.7695
28.454
29.6499
30.281
30.2626
29.5108
27.9575
25.5675
22.3548
18.3963
13.8383
8.8946
3.83512
-1.03405
-5.39765
-8.96172
-11.484
-12.8004
-12.8441
-11.6551
-9.37861
-6.2527
-2.58692
1.26597
4.94185
8.0974
10.4397
11.7512
11.9086
10.8961
8.81303
5.8776
2.42855
-1.07611
-4.0645
-5.86521
-5.73755
-2.92465
3.26575
13.3549
27.5712
45.7328
67.1599
90.6437
114.491
136.652
154.928
167.225
171.824
167.632
154.361
132.611
103.844
70.2454
34.4893
-0.554631
-32.1402
-57.9426
-76.2993
-86.3644
-88.1616
-82.532
-70.991
-55.5156
-38.2941
-21.4687
-6.9051
3.98873
10.3749
12.0234
9.27728
2.95516
-5.79029
-15.6389
-25.272
-33.5243
-39.5033
-42.6647
-42.8409
-40.2222
-35.2997
-28.7776
-21.4712
-14.2002
-7.69328
-2.51151
1.001
2.73646
2.81335
1.54074
-0.636274
-3.202
-5.63755
-7.4821
-8.38127
-8.11814
-6.62487
-3.97545
-0.362477
3.93778
8.60643
13.3237
17.8064
21.8366
25.2798
28.0908
30.3087
32.0418
33.4469
34.7043
35.9941
37.4745
39.2666
41.4443
44.0322
47.0086
50.3126
53.854
57.5231
61.1997
64.7593
68.0779
71.0339
73.5102
75.3945
76.5829
76.9827
76.5183
75.1378
72.8188
69.5743
65.4546
60.5466
54.9695
48.8669
42.3979
35.7263
29.0117
22.402
16.0283
10.0029
4.41903
-0.648061
-5.13936
-9.01089
-12.2335
-14.7937
-16.6959
-17.9637
-18.6422
-18.7971
-18.5124
-17.8855
-17.0199
-16.0174
-14.9687
-13.9471
-13.0022
-12.1584
-11.415
-10.7496
-10.1245
-9.4936
-8.80957
-8.03089
-7.12665
-6.0792
-4.88452
-3.55049
-2.0942
-0.539307
1.08545
2.74596
4.40061
5.99712
7.46955
8.73734
9.70771
10.2826
10.3704
9.90142
8.84502
7.2258
5.13476
2.73253
0.242019
-2.07039
-3.92394
-5.05956
-5.27793
-4.4734
-2.65789
0.0298673
3.33253
6.89933
10.3256
13.2013
15.1617
15.9334
15.3694
13.468
10.3741
6.36225
1.80476
-2.87101
-7.23028
-10.8775
-13.4961
-14.8777
-14.9371
-13.7131
-11.3553
-8.10062
-4.2418
-0.0932136
4.04218
7.90113
11.2807
14.05
16.1519
17.5971
18.4503
18.813
18.8034
18.5372
18.1101
17.5853
16.9855
16.2911
15.4447
14.3605
12.9399
11.0885
8.7357
5.85281
2.46736
-1.32762
-5.37201
-9.44554
-13.2837
-16.6019
-19.1253
-20.6218
-20.9335
-20.0021
-17.8844
-14.7547
-10.8919
-6.65421
-2.44115
1.34939
4.36498
6.33642
7.10379
6.62748
4.98313
2.34306
-1.05037
-4.91189
-8.93289
-12.7874
-16.1222
-18.5353
-19.5525
-18.6167
-15.1056
-8.38838
2.07376
16.5957
35.1244
57.1149
81.4594
106.498
130.126
149.998
163.803
169.576
165.995
152.613
129.989
99.6736
64.074
26.1838
-10.7631
-43.6752
-69.9666
-87.8496
-96.5179
-96.1994
-88.0745
-74.0767
-56.6084
-38.2122
-21.2465
-7.60576
1.47755
5.52939
4.82249
0.265844
-6.78252
-14.7484
-22.0843
-27.4891
-30.0745
-29.4604
-25.7916
-19.6779
-12.0737
-4.11748
3.04292
8.41434
11.2892
11.328
8.58619
3.48515
-3.2633
-10.766
-18.0738
-24.3048
-28.7505
-30.9509
-30.7332
-28.2101
-23.7422
-17.8728
-11.2439
-4.50806
1.75423
7.10069
11.2704
14.2004
16.0168
17.0022
17.5471
18.0901
19.0577
20.8078
23.5859
27.4966
32.4943
38.3919
44.8859
51.5942
58.1009
64.0032
68.9544
72.6986
75.0945
76.1245
75.8906
74.5972
72.5221
69.9812
67.2885
64.7187
62.4742
60.6623
59.2849
58.2414
57.3459
56.3544
55.0007
53.0343
50.2557
46.5444
41.8755
36.3236
30.0525
23.2945
16.3219
9.41434
2.82932
-3.223
-8.59536
-13.2087
-17.0473
-20.1453
-22.5676
-24.3892
-25.6768
-26.4753
-26.802
-26.6484
-25.9894
-24.7967
-23.0556
-20.7789
-18.0186
-14.8713
-11.476
-8.00672
-4.65811
-1.62823
0.900568
2.77955
3.9083
4.24448
3.80768
2.67718
0.984169
-1.1003
-3.38005
-5.64938
-7.70799
-9.3741
-10.4951
-10.9554
-10.6821
-9.64791
-7.87254
-5.42128
-2.40198
1.04017
4.72964
8.46895
12.0484
15.2569
17.8934
19.7795
20.772
20.775
19.7507
17.7267
14.8002
11.1357
6.95699
2.53185
-1.84871
-5.89667
-9.35498
-12.0241
-13.7831
-14.6012
-14.5384
-13.7327
-12.3776
-10.6913
-8.88437
-7.12979
-5.54039
-4.15758
-2.9523
-1.83772
-0.691105
0.61896
2.20476
4.13536
6.41998
9.00112
11.758
14.5198
17.0856
19.2493
20.8245
21.6664
21.6889
20.8728
19.2665
16.9782
14.1614
10.997
7.67372
4.37111
1.24626
-1.57325
-3.99086
-5.93773
-7.36676
-8.24628
-8.55569
-8.28453
-7.43553
-6.03089
-4.12021
-1.78785
0.842573
3.6086
6.3151
8.74631
10.6828
11.9209
12.293
11.6853
10.0512
7.41977
3.89894
-0.326185
-4.99661
-9.78288
-14.2869
-18.0421
-20.5148
-21.1111
-19.1979
-14.1435
-5.38353
7.48968
24.6212
45.788
70.3153
97.0375
124.323
150.176
172.404
188.849
197.639
197.435
187.63
168.469
141.073
107.353
69.8232
31.3445
-5.17735
-37.0964
-62.2945
-79.3826
-87.811
-87.8804
-80.6566
-67.8049
-51.3671
-33.5144
-16.3031
-1.46485
9.74825
16.65
19.1328
17.6129
12.9196
6.14809
-1.50377
-8.89325
-15.0665
-19.3548
-21.425
-21.2829
-19.2345
-15.8133
-11.6865
-7.55408
-4.05253
-1.67632
-0.723554
-1.27104
-3.17909
-6.12286
-9.64433
-13.2167
-16.3129
-18.4687
-19.3345
-18.7091
-16.554
-12.9868
-8.25752
-2.71037
3.26163
9.26448
14.9472
20.0371
24.3641
27.8701
30.6067
32.7187
34.4192
35.9577
37.5853
39.522
41.9283
44.8849
48.3826
52.3234
56.5317
60.7753
64.7928
68.3236
71.138
73.0628
73.9998
73.9353
72.9393
71.1554
68.7823
66.0503
63.1952
60.433
57.9381
55.8262
54.1444
52.8677
51.9023
51.0955
50.2506
49.147
47.5636
45.3033
42.217
38.2241
33.3264
27.6149
21.2658
14.528
7.7013
1.10802
-4.93821
-10.1634
-14.3599
-17.4053
-19.2714
-20.0217
-19.7986
-18.8013
-17.2589
-15.4015
-13.4341
-11.5167
-9.75349
-8.19063
-6.82436
-5.61555
-4.5088
-3.45225
-2.41498
-1.399
-0.44396
0.376115
0.963545
1.21346
1.03326
0.361878
-0.814403
-2.45237
-4.45021
-6.65447
-8.87466
-10.9038
-12.5419
-13.6194
-14.0167
-13.6786
-12.62
-10.9238
-8.73086
-6.22355
-3.60533
-1.07881
1.17495
3.01349
4.34463
5.13183
5.39292
5.19297
4.63263
3.83359
2.92321
2.02011
1.22229
0.598883
0.186147
-0.0123513
-0.0217727
0.110847
0.325294
0.557594
0.749096
0.854371
0.847226
0.724391
0.506592
0.236969
-0.0230128
-0.199768
-0.215321
0.00420047
0.520181
1.37411
2.58191
4.13067
5.97806
8.05446
10.2677
12.5098
14.6649
16.618
18.263
19.5105
20.2933
20.5704
20.3289
19.584
18.3763
16.7687
14.8406
12.6824
10.3889
8.05331
5.76182
3.58887
1.59389
-0.180696
-1.71012
-2.98661
-4.01755
-4.82272
-5.43091
-5.87623
-6.19453
-6.42023
-6.58404
-6.71152
-6.82298
-6.93428
-7.0583
-7.20621
-7.38705
-7.60404
-7.84579
-8.07127
-8.18886
-8.03144
-7.33242
-5.70974
-2.66711
2.37832
10.0348
20.8399
35.1372
52.9421
73.8227
96.8255
120.473
142.851
161.783
175.083
180.844
177.72
165.164
143.563
114.257
79.435
41.9008
4.76666
-28.9053
-56.4528
-75.9102
-86.2149
-87.2963
-80.0422
-66.1501
-47.8891
-27.8062
-8.41683
8.08039
20.031
26.4708
27.1781
22.6328
13.8959
2.42934
-10.1156
-22.1133
-32.1557
-39.199
-42.6533
-42.408
-38.7974
-32.5163
-24.5016
-15.7974
-7.42292
-0.257658
5.04235
8.09261
8.79051
7.29251
3.96603
-0.673961
-6.03327
-11.5031
-16.5141
-20.5775
-23.3107
-24.4506
-23.8568
-21.5058
-17.4822
-11.965
-5.21257
2.4552
10.6766
19.0703
27.2593
34.8953
41.6825
47.3979
51.9059
55.1663
57.2334
58.2461
58.4115
57.9812
57.226
56.4092
55.7635
55.4726
55.6591
56.3795
57.626
59.334
61.393
63.6605
65.9755
68.1718
70.0887
71.58
72.5199
72.8079
72.372
71.1708
69.1951
66.4681
63.0447
59.0072
54.4603
49.5214
44.3109
38.9411
33.5076
28.0836
22.7198
17.4486
12.2938
7.28273
2.458
-2.11357
-6.33776
-10.0974
-13.2641
-15.7169
-17.3631
-18.159
-18.1254
-17.3546
-16.0063
-14.2931
-12.4563
-10.7365
-9.34273
-8.42555
-8.05767
-8.22564
-8.83326
-9.71647
-10.6672
-11.4628
-11.8968
-11.8067
-11.096
-9.74577
-7.81752
-5.44439
-2.81433
-0.146758
2.33385
4.42403
5.96382
6.85314
7.06023
6.62162
5.63402
4.23979
2.60809
0.914654
-0.677172
-2.03179
-3.05147
-3.68054
-3.90392
-3.74095
-3.23632
-2.44984
-1.447
-0.291796
0.957468
2.24914
3.53664
4.77535
5.91928
6.91886
7.72059
8.26921
8.51208
8.40527
7.92029
7.05021
5.81418
4.25937
2.45983
0.512264
-1.47084
-3.37004
-5.06858
-6.46165
-7.46433
-8.017
-8.0878
-7.6717
-6.78669
-5.46752
-3.75853
-1.70669
0.643312
3.25105
6.07864
9.08551
12.2209
15.4154
18.5743
21.5741
24.2641
26.474
28.0271
28.7581
28.5325
27.2665
24.9433
21.6239
17.4506
12.642
7.47967
2.28813
-2.59116
-6.82787
-10.131
-12.2739
-13.1145
-12.6082
-10.8125
-7.88418
-4.06802
0.320211
4.91604
9.33126
13.1801
16.1053
17.8033
18.0485
16.7188
13.8216
9.52182
4.17027
-1.67451
-7.23819
-11.5491
-13.4945
-11.9217
-5.78286
5.68994
22.8043
45.2552
72.0368
101.445
131.188
158.601
180.936
195.7
200.977
195.697
179.805
154.299
121.138
83.0276
43.1101
4.60982
-29.5241
-56.9282
-76.0513
-86.2723
-87.902
-82.0749
-70.5537
-55.4763
-39.0819
-23.4504
-10.2862
-0.768794
4.51983
5.58762
2.95568
-2.47161
-9.56747
-17.151
-24.1407
-29.6755
-33.1922
-34.4539
-33.5334
-30.7587
-26.6336
-21.7469
-16.6854
-11.9603
-7.95604
-4.9054
-2.8889
-1.85543
-1.65673
-2.08817
-2.92837
-3.97164
-5.0495
-6.04005
-6.86612
-7.48501
-7.87372
-8.01331
-7.87616
-7.41822
-6.57758
-5.2791
-3.44382
-1.00125
2.0978
5.87014
10.2926
15.2994
20.7844
26.6091
32.6134
38.6299
44.4977
50.0755
55.2508
59.9454
64.116
67.75
70.8578
73.4629
75.5913
77.2627
78.484
79.2467
79.5287
79.298
78.5205
77.1672
75.221
72.6825
69.5728
65.9347
61.8316
57.3447
52.5696
47.612
42.5831
37.5936
32.7488
28.1413
23.844
19.9032
16.3315
13.1031
10.1525
7.37784
4.64982
1.82689
-1.2253
-4.61178
-8.38647
-12.5344
-16.961
-21.4916
-25.8812
-29.8363
-33.0442
-35.2095
-36.0899
-35.5295
-33.4838
-30.0324
-25.3788
-19.8361
-13.7997
-7.71186
-2.01957
2.86681
6.61142
8.98245
9.87075
9.29596
7.40016
4.43025
0.711187
-3.38673
-7.48319
-11.2223
-14.303
-16.502
-17.6888
-17.8305
-16.9866
-15.2963
-12.958
-10.2063
-7.28582
-4.42839
-1.8326
0.350345
2.02472
3.1516
3.74429
3.85888
3.58164
3.01499
2.26376
1.42333
0.570629
-0.241229
-0.984474
-1.65463
-2.26535
-2.84107
-3.40845
-3.98774
-4.58537
-5.18865
-5.76343
-6.2551
-6.59302
-6.69772
-6.49035
-5.90293
-4.88839
-3.4289
-1.54146
0.720156
3.26756
5.98393
8.73368
11.3747
13.7716
15.8092
17.4034
18.5097
19.1267
19.296
19.0959
18.6325
18.027
17.4011
16.8637
16.4984
16.3542
16.4407
16.7276
17.1482
17.6072
17.9909
18.1794
18.0591
17.535
16.5407
15.0465
13.0636
10.6448
7.88097
4.8942
1.82725
-1.16857
-3.94656
-6.37719
-8.35879
-9.82511
-10.7491
-11.1426
-11.0514
-10.5472
-9.71645
-8.64729
-7.41479
-6.06539
-4.60016
-2.95706
-0.993124
1.53116
4.96041
9.73888
16.3827
25.4229
37.318
52.341
70.4582
91.2221
113.706
136.507
157.825
175.629
187.884
192.817
189.176
176.442
154.961
125.964
91.477
54.1176
16.818
-17.5001
-46.2487
-67.4535
-79.9569
-83.5168
-78.7949
-67.2384
-50.8761
-32.0572
-13.1692
3.62919
16.63
24.7269
27.484
25.1201
18.4166
8.56918
-2.9961
-14.8144
-25.5582
-34.1782
-39.9946
-42.7335
-42.5096
-39.7634
-35.1653
-29.5036
-23.5698
-18.0585
-13.4916
-10.1739
-8.18325
-7.39151
-7.51178
-8.16131
-8.93057
-9.44786
-9.43107
-8.72029
-7.28873
-5.23242
-2.74236
-0.0646914
2.54393
4.85905
6.72299
8.06703
8.91893
9.39604
9.68601
10.0189
10.6354
11.7558
13.5539
16.1395
19.55
23.7525
28.6531
34.113
39.9665
46.0394
52.1638
58.1893
63.9868
69.448
74.4784
78.9885
82.8832
86.0549
88.3797
89.7215
89.9421
88.9165
86.5528
82.8114
77.7218
71.3931
64.0159
55.8554
47.2347
38.5114
30.0486
22.1855
15.2092
9.33236
4.6782
1.27446
-0.943102
-2.11884
-2.45839
-2.20543
-1.61655
-0.937196
-0.380951
-0.114242
-0.247573
-0.833614
-1.87148
-3.3158
-5.08873
-7.0927
-9.22235
-11.374
-13.4526
-15.3748
-17.071
-18.4841
-19.5688
-20.2905
-20.6243
-20.5562
-20.0836
-19.2174
-17.9842
-16.4267
-14.6042
-12.5907
-10.4718
-8.33878
-6.28254
-4.38643
-2.71953
-1.33136
-0.24912
0.522129
0.99617
1.19977
1.16542
0.924267
0.500795
-0.0894378
-0.838298
-1.74007
-2.78394
-3.94575
-5.18093
-6.42054
-7.57184
-8.52395
-9.15817
-9.36183
-9.04363
-8.14813
-6.6671
-4.6459
-2.18362
0.57326
3.44304
6.22541
8.72036
10.7474
12.1624
12.8709
12.8363
12.082
10.688
8.78336
6.53398
4.12826
1.76186
-0.377227
-2.12209
-3.33781
-3.92924
-3.84557
-3.08131
-1.6742
0.299715
2.73322
5.4966
8.44695
11.4372
14.3245
16.9766
19.2767
21.1263
22.4469
23.1795
23.2849
22.7431
21.5526
19.7314
17.317
14.3673
10.9605
7.19511
3.18827
-0.926635
-5.00386
-8.89057
-12.4334
-15.4862
-17.9184
-19.624
-20.5293
-20.6002
-19.8462
-18.3226
-16.129
-13.404
-10.3171
-7.05812
-3.82451
-0.807674
1.82178
3.93004
5.43837
6.34462
6.74733
6.86966
7.07698
7.87879
9.90504
13.8487
20.3726
29.9875
42.9182
58.9825
77.5116
97.3359
116.853
134.176
147.349
154.601
154.596
146.64
130.816
108.015
79.8658
48.5605
16.6137
-13.4227
-39.2448
-59.046
-71.6997
-76.8549
-74.9367
-67.0546
-54.8366
-40.2109
-25.1661
-11.52
-0.724518
6.27182
9.09037
7.91506
3.41741
-3.37196
-11.2251
-18.8888
-25.2458
-29.4434
-30.9799
-29.7374
-25.9653
-20.2181
-13.2616
-5.96076
0.834673
6.39223
10.1755
11.8925
11.5106
9.24046
5.49273
0.816555
-4.17218
-8.86337
-12.7177
-15.3174
-16.399
-15.8649
-13.7763
-10.3278
-5.81075
-0.569487
5.04363
10.7081
16.1657
21.2391
25.8362
29.9417
33.5989
36.8841
39.8803
42.6526
45.2315
47.605
49.7214
51.5023
52.8617
53.7294
54.0736
53.918
53.351
52.5245
51.6412
50.9329
50.6311
50.9343
51.9764
53.8008
56.3438
59.4304
62.7848
66.0538
68.8425
70.7575
71.4519
70.6664
68.261
64.2312
58.7073
51.936
44.2471
36.0118
27.5973
19.3267
11.4496
4.12863
-2.55832
-8.59975
-14.0225
-18.8591
-23.1185
-26.7662
-29.7171
-31.8452
-33.0053
-33.065
-31.9391
-29.6215
-26.2054
-21.8911
-16.9757
-11.829
-6.85549
-2.45052
1.04444
3.38102
4.43194
4.20421
2.83595
0.577593
-2.23961
-5.24358
-8.06438
-10.3749
-11.9245
-12.5614
-12.243
-11.0319
-9.08098
-6.6085
-3.86812
-1.11736
1.4113
3.53354
5.12802
6.14219
6.58906
6.53638
6.09053
5.37753
4.52409
3.64094
2.81027
2.07839
1.45382
0.910545
0.395428
-0.161417
-0.834572
-1.69103
-2.7789
-4.11828
-5.69508
-7.45867
-9.32344
-11.1743
-12.8759
-14.2839
-15.2586
-15.678
-15.4494
-14.5197
-12.8804
-10.5697
-7.66983
-4.30031
-0.608331
3.24286
7.08609
10.7616
14.1264
17.0614
19.475
21.3045
22.5148
23.096
23.0595
22.4351
21.2681
19.6184
17.5598
15.1808
12.5855
9.89247
7.23153
4.7374
2.5393
0.747953
-0.558264
-1.34531
-1.63071
-1.48387
-1.01835
-0.376906
0.288733
0.839684
1.16963
1.21877
0.979376
0.492111
-0.166386
-0.902184
-1.62565
-2.27199
-2.81693
-3.28477
-3.74698
-4.31114
-5.10089
-6.22831
-7.76049
-9.68258
-11.8606
-14.009
-15.6703
-16.2152
-14.8742
-10.8052
-3.19982
8.57886
24.8459
45.4554
69.7026
96.2951
123.41
148.84
170.221
185.305
192.237
189.813
177.65
156.267
127.054
92.1353
54.148
15.9638
-19.6053
-50.0865
-73.5763
-88.8993
-95.6808
-94.3319
-85.9538
-72.1773
-54.9592
-36.3612
-18.3355
-2.53956
9.80108
17.9726
21.79
21.5554
17.9666
11.9903
4.71657
-2.78672
-9.60368
-15.0695
-18.83
-20.8554
-21.4112
-20.9892
-20.2123
-19.7244
-20.0815
-21.6598
-24.5914
-28.7381
-33.7041
-38.887
-43.5586
-46.9641
-48.4254
-47.435
-43.7272
-37.3179
-28.5078
-17.8501
-6.08689
5.93623
17.3658
27.4345
35.5425
41.3161
44.6385
45.6511
44.7254
42.4109
39.3657
36.2787
33.7911
32.4276
32.5437
34.2938
37.6246
42.2918
47.8979
53.9454
59.8987
65.2462
69.5563
72.5199
73.9758
73.9176
72.4812
69.9174
66.5532
62.747
58.8438
55.1363
51.8336
49.0431
46.764
44.8941
43.2478
41.5825
39.6318
37.1415
33.9053
29.7961
24.7889
18.9737
12.5541
5.83225
-0.819382
-6.99773
-12.3153
-16.448
-19.1786
-20.4297
-20.2811
-18.9679
-16.8579
-14.4105
-12.1206
-10.4539
-9.7832
-10.3332
-12.1431
-15.0528
-18.7163
-22.6412
-26.2515
-28.9633
-30.2659
-29.7941
-27.384
-23.1015
-17.2411
-10.2942
-2.891
4.27575
10.5342
15.3135
18.2103
19.032
17.8132
14.8043
10.4336
5.25034
-0.143829
-5.16603
-9.31653
-12.2293
-13.7031
-13.7115
-12.3912
-10.0124
-6.9365
-3.56661
-0.297581
2.52808
4.65423
5.93179
6.32511
5.90461
4.82805
3.31367
1.6092
-0.0392294
-1.41473
-2.35107
-2.7461
-2.56682
-1.84672
-0.676918
0.806651
2.43807
4.03644
5.41985
6.41775
6.88165
6.69435
5.77812
4.10217
1.68941
-1.37784
-4.95429
-8.83194
-12.7458
-16.3865
-19.4213
-21.5207
-22.3918
-21.8109
-19.6548
-15.9232
-10.7495
-4.39851
2.75214
10.2424
17.5704
24.238
29.7951
33.8787
36.2413
36.7676
35.4773
32.5156
28.1332
22.6581
16.4643
9.93814
3.44798
-2.68246
-8.1937
-12.9029
-16.7079
-19.584
-21.5728
-22.7658
-23.2836
-23.2541
-22.7926
-21.9854
-20.8817
-19.4926
-17.7994
-15.7679
-13.3678
-10.5909
-7.46561
-4.06126
-0.480477
3.16291
6.77876
10.3436
13.944
17.8096
22.3231
27.9983
35.4165
45.1256
57.5089
72.6462
90.1945
109.317
128.689
146.585
161.063
170.202
172.379
166.524
152.325
130.333
101.951
69.3055
35.0131
1.87784
-27.4385
-50.7269
-66.4789
-74.0407
-73.6539
-66.3845
-53.9519
-38.4867
-22.2524
-7.36822
4.43108
11.971
14.731
12.8496
7.04846
-1.51031
-11.4099
-21.1809
-29.4927
-35.3122
-38.0117
-37.4164
-33.7925
-27.7792
-20.2819
-12.3389
-4.9835
0.88292
4.59207
5.77373
4.38002
0.669662
-4.84241
-11.4605
-18.3975
-24.866
-30.1606
-33.7234
-35.1873
-34.3953
-31.3961
-26.4201
-19.8396
-12.1199
-3.76608
4.72693
12.9184
20.4542
27.0871
32.6829
37.2143
40.7438
43.3997
45.3483
46.7657
47.815
48.6303
49.3094
49.9165
50.4925
51.0684
51.6809
52.3821
53.2438
54.352
55.7938
57.6384
59.9155
62.5968
65.5833
68.7035
71.7225
74.3626
76.332
77.3588
77.2242
75.7898
73.016
68.9674
63.8052
57.7677
51.1419
44.2314
37.3243
30.666
24.4404
18.7618
13.6759
9.17057
5.19279
1.66818
-1.47885
-4.30822
-6.85219
-9.10989
-11.0486
-12.6115
-13.73
-14.3397
-14.3963
-13.89
-12.8551
-11.3741
-9.57461
-7.62017
-5.69452
-3.98257
-2.64963
-1.82171
-1.56958
-1.89859
-2.74608
-3.98716
-5.44851
-6.92906
-8.22506
-9.15648
-9.59116
-9.46317
-8.78267
-7.63543
-6.17175
-4.58605
-3.08977
-1.88152
-1.11872
-0.895189
-1.22824
-2.05729
-3.25428
-4.64417
-6.03181
-7.23093
-8.09043
-8.51389
-8.46972
-7.99091
-7.16506
-6.11711
-4.98773
-3.91122
-2.99616
-2.3115
-1.87986
-1.67825
-1.64571
-1.69604
-1.7333
-1.66762
-1.42884
-0.976329
-0.303634
0.561979
1.56474
2.62905
3.67017
4.60512
5.36251
5.88981
6.15768
6.16092
5.91657
5.45978
4.83856
4.10835
3.32735
2.55301
1.84008
1.23978
0.799823
0.564677
0.575413
0.86872
1.47474
2.41372
3.6917
5.29583
7.19006
9.31206
11.5724
13.8566
16.0303
17.9484
19.4658
20.4502
20.7958
20.4337
19.3411
17.545
15.1217
12.1911
8.9061
5.43985
1.96987
-1.33707
-4.33887
-6.92875
-9.04149
-10.6546
-11.784
-12.4757
-12.7939
-12.8088
-12.5858
-12.1769
-11.617
-10.9216
-10.0861
-9.08128
-7.8438
-6.25926
-4.13973
-1.20175
2.94595
8.79363
16.8903
27.7672
41.8274
59.2158
79.6906
102.525
126.468
149.781
170.367
185.98
194.498
194.216
184.119
164.094
135.034
98.8139
58.1321
16.2382
-23.4263
-57.6215
-83.6844
-99.8338
-105.364
-100.703
-87.3276
-67.5558
-44.238
-20.4006
1.1165
17.9795
28.5997
32.2663
29.1632
20.2748
7.20132
-8.08671
-23.5201
-37.1916
-47.5753
-53.6789
-55.1182
-52.1096
-45.389
-36.0753
-25.4984
-15.018
-5.85496
1.04433
5.09804
6.12624
4.33638
0.263569
-5.3227
-11.5309
-17.4638
-22.3234
-25.495
-26.5999
-25.516
-22.3649
-17.4722
-11.3069
-4.41068
2.67417
9.46891
15.6074
20.8654
25.1689
28.582
31.278
33.4999
35.5156
37.5748
39.8728
42.5254
45.5573
48.9044
52.4279
55.9383
59.2245
62.0844
64.3522
65.9198
66.7495
66.8768
66.4026
65.4776
64.2792
62.9853
61.7488
60.6751
59.8072
59.1196
58.5214
57.8691
56.9858
55.6848
53.7945
51.1804
47.762
43.5228
38.5122
32.8402
26.6653
20.1797
13.5917
7.11044
0.931916
-4.77147
-9.85895
-14.2273
-17.8155
-20.608
-22.6366
-23.9794
-24.7563
-25.1188
-25.2357
-25.2735
-25.3748
-25.6368
-26.094
-26.708
-27.3674
-27.8994
-28.0914
-27.7215
-26.5933
-24.5707
-21.6065
-17.7614
-13.2092
-8.22751
-3.1736
1.55143
5.54613
8.45437
10.0078
10.0597
8.60576
5.79028
1.89585
-2.68135
-7.46836
-11.9604
-15.6692
-18.1703
-19.1442
-18.4078
-15.9341
-11.857
-6.46188
-0.162451
6.53438
13.0725
18.8959
23.4986
26.4712
27.5387
26.5863
23.67
19.0107
12.9722
6.02545
-1.29748
-8.45389
-14.9404
-20.3361
-24.3347
-26.761
-27.5729
-26.8466
-24.7515
-21.5168
-17.3974
-12.643
-7.47627
-2.08183
3.39332
8.8291
14.1156
19.1351
23.7473
27.7836
31.0512
33.3495
34.495
34.3525
32.8659
30.0826
26.1678
21.4024
16.1656
10.9019
6.07729
2.12867
-0.585141
-1.82547
-1.50275
0.311454
3.39108
7.38001
11.8313
16.2564
20.1775
23.1778
24.9428
25.288
24.172
21.6911
18.0607
13.5842
8.61397
3.51151
-1.39086
-5.82083
-9.58732
-12.5905
-14.8207
-16.3466
-17.2965
-17.8323
-18.1221
-18.31
-18.4895
-18.678
-18.7968
-18.6563
-17.9483
-16.2467
-13.0224
-7.67443
0.414741
11.7991
26.8644
45.7099
68.0335
93.0447
119.434
145.416
168.864
187.515
199.242
202.333
195.754
179.328
153.825
120.917
83.0262
43.0689
4.13774
-30.8344
-59.3865
-79.7773
-91.1401
-93.5301
-87.8636
-75.7622
-59.328
-40.8806
-22.6895
-6.73519
5.4764
13.0282
15.6283
13.5711
7.63562
-1.06013
-11.2274
-21.5744
-30.9534
-38.4725
-43.5629
-45.9994
-45.8772
-43.5555
-39.576
-34.5733
-29.1861
-23.9817
-19.3997
-15.7202
-13.0558
-11.3653
-10.4842
-10.1658
-10.127
-10.0906
-9.82205
-9.15412
-8.00008
-6.35424
-4.28155
-1.89911
0.647517
3.20948
5.65828
7.90509
9.91364
11.7054
13.357
14.9894
16.7515
18.7996
21.2752
24.2844
27.8818
32.0601
36.748
41.815
47.084
52.3487
57.3941
62.0171
66.0453
69.3507
71.8584
73.5485
74.4519
74.6415
74.2193
73.3018
72.0054
70.4332
68.6647
66.7486
64.6999
62.5012
60.1078
57.4564
54.4757
51.0997
47.28
42.998
38.2733
33.1688
27.7907
22.2833
16.8179
11.5786
6.74464
2.47282
-1.11881
-3.96308
-6.05034
-7.42854
-8.19658
-8.49175
-8.47283
-8.30102
-8.12122
-8.04598
-8.14417
-8.4356
-8.89218
-9.44505
-9.99659
-10.4356
-10.6532
-10.5582
-10.0894
-9.22339
-7.97822
-6.41165
-4.61489
-2.70284
-0.802117
0.961743
2.47638
3.65271
4.4321
4.79012
4.73666
4.31263
3.58397
2.63373
1.55313
0.432875
-0.644602
-1.61106
-2.41621
-3.02927
-3.43823
-3.6476
-3.67483
-3.54621
-3.29284
-2.94697
-2.53931
-2.09723
-1.64397
-1.19867
-0.776847
-0.391244
-0.0525735
0.229906
0.448178
0.595668
0.667809
0.662882
0.582939
0.434629
0.229712
-0.0148755
-0.277482
-0.532744
-0.753022
-0.91013
-0.977142
-0.930052
-0.749077
-0.419464
0.0682767
0.718659
1.53193
2.50501
3.63246
4.90724
6.32102
7.86382
9.52285
11.2806
13.1122
14.9831
16.8461
18.6409
20.2942
21.7224
22.8361
23.5476
23.778
23.4657
22.574
21.0967
19.0611
16.5278
13.588
10.3574
6.96834
3.56082
0.272971
-2.76771
-5.45204
-7.69513
-9.44038
-10.6614
-11.3619
-11.5737
-11.3528
-10.7744
-9.92684
-8.90451
-7.80077
-6.70077
-5.6744
-4.76919
-4.00262
-3.35305
-2.74841
-2.05283
-1.05318
0.550608
3.14496
7.18469
13.1515
21.4868
32.5019
46.2782
62.5731
80.7549
99.7855
118.266
134.551
146.919
153.783
153.913
146.626
131.925
110.552
83.9398
54.0757
23.2872
-6.02205
-31.6456
-51.8201
-65.412
-72.0187
-71.9764
-66.2756
-56.4011
-44.121
-31.2562
-19.4606
-10.0403
-3.83122
-1.14687
-1.79627
-5.16413
-10.3371
-16.256
-21.8713
-26.2823
-28.8433
-29.2262
-27.4353
-23.7778
-18.7975
-13.1834
-7.66782
-2.9275
0.500487
2.2782
2.29686
0.676104
-2.26481
-6.05809
-10.1527
-13.985
-17.0451
-18.933
-19.3961
-18.3476
-15.8632
-12.1596
-7.55724
-2.43453
2.82126
7.86015
12.407
16.287
19.4368
21.9013
23.818
25.3916
26.8641
28.4822
30.4691
33.0004
36.1882
40.0726
44.6216
49.7368
55.2648
61.0107
66.7537
72.2609
77.3013
81.6566
85.1311
87.5599
88.8157
88.8159
87.5267
84.9676
81.2117
76.3841
70.6553
64.2321
57.3442
50.2293
43.1174
36.2163
29.6994
23.6972
18.2938
13.5268
9.39205
5.85077
2.83938
0.279709
-1.91102
-3.81148
-5.48971
-6.99927
-8.37809
-9.64981
-10.8269
-11.9149
-12.9157
-13.8315
-14.6651
-15.4203
-16.1001
-16.7046
-17.229
-17.6627
-17.9909
-18.1965
-18.265
-18.1885
-17.9691
-17.6198
-17.1622
-16.6208
-16.0149
-15.3497
-14.609
-13.7515
-12.7124
-11.4104
-9.76126
-7.69362
-5.16738
-2.18957
1.17442
4.79684
8.4924
12.0319
15.1637
17.6398
19.2445
19.8205
19.2895
17.665
15.0541
11.6499
7.71305
3.54674
-0.533123
-4.22865
-7.28805
-9.52804
-10.8481
-11.2355
-10.7609
-9.56591
-7.84339
-5.81469
-3.70509
-1.72098
-0.0307556
1.24864
2.0588
2.40015
2.3262
1.9328
1.34393
0.695975
0.12226
-0.260515
-0.362495
-0.1268
0.468657
1.41328
2.66898
4.17739
5.86776
7.6647
9.49466
11.2909
12.9964
14.5656
15.964
17.1676
18.1609
18.9354
19.4876
19.8171
19.9253
19.8139
19.484
18.9355
18.1675
17.1784
15.9673
14.5353
12.8872
11.034
8.99383
6.79427
4.47292
2.07779
-0.333168
-2.69347
-4.93025
-6.9671
-8.72748
-10.1384
-11.1343
-11.6616
-11.6833
-11.1832
-10.1706
-8.68105
-6.77349
-4.5188
-1.97824
0.828787
3.96431
7.61071
12.0966
17.8955
25.584
35.755
48.8889
65.2027
84.5032
106.079
128.665
150.492
169.447
183.299
189.994
187.953
176.327
155.182
125.562
89.4244
49.4578
8.79612
-29.3273
-61.9394
-86.6548
-101.926
-107.191
-102.893
-90.3909
-71.756
-49.5041
-26.2876
-4.59343
13.5189
26.6083
33.9553
35.5707
32.1158
24.7531
14.9499
4.26561
-5.85027
-14.2249
-20.0753
-23.0599
-23.2678
-21.1543
-17.4355
-12.962
-8.58779
-5.05343
-2.89598
-2.39502
-3.55776
-6.14117
-9.7044
-13.6815
-17.4626
-20.4723
-22.2349
-22.4204
-20.8668
-17.5815
-12.7222
-6.56519
0.534182
8.18165
15.981
23.5635
30.6089
36.8575
42.1148
46.251
49.1961
50.9357
51.5047
50.9836
49.4951
47.2016
44.3022
41.0294
37.6437
34.4262
31.6681
29.6565
28.6576
28.8966
30.5362
33.6562
38.2352
44.1397
51.1198
58.8171
66.7824
74.5056
81.4527
87.1093
91.0237
92.8462
92.3592
89.4957
84.3426
77.1305
68.2095
58.0157
47.0308
35.7407
24.5969
13.9861
4.20941
-4.52567
-12.102
-18.4796
-23.6754
-27.7409
-30.7406
-32.7364
-33.7777
-33.9007
-33.1344
-31.5114
-29.0821
-25.927
-22.1673
-17.9687
-13.5395
-9.12252
-4.97999
-1.37492
1.45085
3.29913
4.03625
3.60994
2.06032
-0.476881
-3.77563
-7.53413
-11.3978
-14.9896
-17.9453
-19.95
-20.7719
-20.2891
-18.5046
-15.5473
-11.6587
-7.16545
-2.44321
2.12479
6.18735
9.45835
11.7387
12.9254
13.0072
12.0502
10.1772
7.54581
4.32988
0.707613
-3.14323
-7.0441
-10.8114
-14.2529
-17.1682
-19.356
-20.6278
-20.8286
-19.8595
-17.6998
-14.4231
-10.2049
-5.31713
-0.110498
5.01476
9.64642
13.4014
15.9652
17.1245
16.7884
14.997
11.9155
7.81592
3.04931
-1.98713
-6.88506
-11.2574
-14.7663
-17.1435
-18.2052
-17.8584
-16.1025
-13.0254
-8.79624
-3.65368
2.10771
8.15493
14.1365
19.7047
24.539
28.3693
30.9955
32.3033
32.2723
30.9762
28.5741
25.2937
21.4078
17.208
12.9769
8.96327
5.36287
2.30651
-0.143488
-1.98873
-3.28344
-4.11855
-4.60369
-4.84964
-4.95355
-4.98859
-4.99876
-4.99916
-4.98078
-4.91848
-4.78018
-4.53524
-4.15954
-3.63525
-2.9437
-2.05034
-0.882596
0.697034
