11.6904
12.2018
12.5662
12.677
12.4276
11.7256
10.5077
8.75172
6.48493
3.78641
0.782995
-2.36088
-5.45863
-8.32013
-10.7715
-12.6731
-13.9346
-14.5236
-14.4688
-13.856
-12.8183
-11.5218
-10.1491
-8.88114
-7.88079
-7.27671
-7.14757
-7.50422
-8.26763
-9.24151
-10.0813
-10.265
-9.07581
-5.60798
1.19234
12.4431
29.1986
52.2867
82.1283
118.566
160.728
206.969
254.892
301.485
343.353
377.042
399.4
407.951
401.212
378.927
342.157
293.233
235.553
173.261
110.827
52.601
2.37803
-36.9627
-63.7102
-77.4346
-78.9534
-70.1629
-53.7591
-32.8892
-10.7773
9.62911
25.9529
36.5906
40.8084
38.7292
31.2206
19.707
5.9343
-8.28033
-21.2805
-31.7596
-38.8861
-42.3563
-42.3751
-39.5731
-34.8766
-29.3521
-24.0465
-19.8457
-17.366
-16.8925
-18.3663
-21.4191
-25.4463
-29.7052
-33.4219
-35.8932
-36.5674
-35.0976
-31.361
-25.4467
-17.6173
-8.2536
2.2089
13.3401
24.7658
36.2024
47.4737
58.5106
69.336
80.0386
90.7421
101.573
112.63
123.966
135.57
147.367
159.219
170.937
182.298
193.063
202.992
211.858
219.46
225.621
230.194
233.047
234.063
233.127
230.125
224.949
217.497
207.698
195.529
181.04
164.375
145.793
125.67
104.502
82.8784
61.4561
40.9123
21.8964
4.97905
-9.39454
-20.94
-29.5549
-35.3226
-38.4979
-39.4766
-38.7521
-36.8654
-34.3517
-31.693
-29.278
-27.3767
-26.1286
-25.5473
-25.538
-25.9255
-26.4888
-26.9971
-27.2425
-27.0666
-26.3774
-25.156
-23.4525
-21.3737
-19.0638
-16.6827
-14.3835
-12.2932
-10.4986
-9.03858
-7.90364
-7.04135
-6.36736
-5.77939
-5.17235
-4.4525
-3.54884
-2.42063
-1.06039
0.507414
2.23145
4.04116
5.85562
7.59239
9.17501
10.5385
11.6322
12.4205
12.8818
13.0054
12.7895
12.2382
11.3608
10.171
8.68794
6.93768
4.95431
2.78087
0.469049
-1.92238
-4.33038
-6.69121
-8.94421
-11.0349
-12.9172
-14.5533
-15.9133
-16.9725
-17.7093
-18.1034
-18.1356
-17.7897
-17.0555
-15.9341
-14.442
-12.6158
-10.5136
-8.21445
-5.81471
-3.4214
-1.14389
0.915488
2.67043
4.05818
5.04451
5.62568
5.82719
5.69956
5.31196
4.7445
4.08023
3.398
2.76669
2.24164
1.86314
1.65711
1.63719
1.808
2.16862
2.71582
3.44651
4.35916
5.45413
6.73315
8.19823
9.8505
11.6894
13.7122
15.9148
18.2919
20.8377
23.5457
26.4066
29.4053
32.5152
35.6926
38.87
41.9519
44.8124
47.2975
49.2313
50.4275
50.7038
49.8999
47.8951
44.6251
40.0943
34.383
27.6481
20.116
12.0686
3.82386
-4.28855
-11.9526
-18.8912
-24.8875
-29.8017
-33.5791
-36.2511
-37.9271
-38.7791
-39.0201
-38.8794
-38.5771
-38.3
-38.181
-38.2837
-38.5902
-38.9907
-39.2731
-39.1098
-38.044
-35.4785
-30.676
-22.78
-10.8663
5.97014
28.4932
57.1787
92.0591
132.585
177.531
224.965
272.318
316.535
354.328
382.49
398.248
399.597
385.58
356.469
313.806
260.31
199.641
136.047
73.9499
17.5036
-29.8147
-65.5284
-88.3684
-98.3391
-96.6419
-85.4696
-67.7047
-46.56
-25.2079
-6.44317
7.5843
15.5412
16.9737
12.2632
2.4904
-10.7694
-25.6879
-40.4312
-53.3812
-63.3077
-69.4752
-71.6762
-70.1956
-65.7163
-59.1848
-51.6566
-44.1436
-37.4844
-32.2501
-28.6959
-26.7598
-26.1039
-26.1891
-26.3682
-25.9855
-24.466
-21.3858
-16.5139
-9.82476
-1.48148
8.20427
18.8273
29.9502
41.1612
52.1214
62.5968
72.4706
81.7394
90.4939
98.8894
107.112
115.344
123.737
132.388
141.331
150.532
159.9
169.294
178.542
187.458
195.852
203.546
210.375
216.184
220.825
224.15
225.996
226.182
224.513
220.776
214.768
206.307
195.272
181.634
165.485
147.072
126.804
105.25
83.1203
61.2182
40.3834
21.421
5.02903
-8.26806
-18.1696
-24.6276
-27.8486
-28.269
-26.5055
-23.2883
-19.3829
-15.5124
-12.2874
-10.1521
-9.3527
-9.92906
-11.7307
-14.453
-17.6877
-20.9818
-23.8961
-26.057
-27.196
-27.1734
-25.9843
-23.7475
-20.6817
-17.071
-13.2272
-9.45119
-6.00148
-3.06979
-0.768222
0.872849
1.89675
2.40465
2.53484
2.44034
2.26793
2.1411
2.14849
2.33856
2.72026
3.2686
3.9337
4.65152
5.35441
5.98029
6.47918
6.81683
6.97553
6.95245
6.75651
6.40445
5.91699
5.31572
4.62082
3.84995
3.01793
2.13703
1.21761
0.268755
-0.701127
-1.68389
-2.67124
-3.65433
-4.62322
-5.56621
-6.46918
-7.31503
-8.08365
-8.75244
-9.29762
-9.69632
-9.92928
-9.98366
-9.85571
-9.55267
-9.0934
-8.50756
-7.83317
-7.11282
-6.38894
-5.69893
-5.07072
-4.51982
-4.04806
-3.64454
-3.28854
-2.95403
-2.61496
-2.2504
-1.84878
-1.41038
-0.947695
-0.483524
-0.0471909
0.330672
0.623886
0.816181
0.90549
0.906417
0.85048
0.784107
0.764689
0.855319
1.11902
1.61337
2.38616
3.47285
4.89573
6.66481
8.77967
11.2317
14.0055
17.0796
20.4245
23.9999
27.7507
31.6027
35.4595
39.2013
42.6871
45.7607
48.2592
50.0255
50.9216
50.8425
49.7278
47.5707
44.422
40.3885
35.6264
30.3293
24.7125
18.9961
13.3873
8.06454
3.16603
-1.21826
-5.04854
-8.33243
-11.1175
-13.4802
-15.5135
-17.3128
-18.9643
-20.5353
-22.0682
-23.579
-25.06
-26.4857
-27.8216
-29.0331
-30.092
-30.9774
-31.6667
-32.114
-32.2128
-31.7462
-30.3285
-27.3513
-21.9511
-13.018
0.733366
20.6215
47.7854
82.9223
126.016
176.107
231.162
288.084
342.899
391.099
428.125
449.909
453.418
437.096
401.153
347.639
280.292
204.169
125.119
49.1517
-18.2058
-72.4857
-110.718
-131.678
-135.927
-125.638
-104.248
-75.9899
-45.3539
-16.568
6.85717
22.46
29.009
26.522
16.1351
-0.150293
-19.7999
-40.1117
-58.5661
-73.1183
-82.4035
-85.8381
-83.6127
-76.5893
-66.1249
-53.8489
-41.4286
-30.3509
-21.7488
-16.2872
-14.1199
-14.9141
-17.9351
-22.1744
-26.5008
-29.8147
-31.1848
-29.9522
-25.7913
-18.7236
-9.08669
2.53316
15.3947
28.7057
41.7249
53.8479
64.6679
74.0072
81.916
88.6436
94.5876
100.229
106.065
112.541
120.001
128.649
138.53
149.53
161.394
173.752
186.161
198.141
209.217
218.95
226.97
232.987
236.802
238.308
237.477
234.348
229.011
221.588
212.221
201.058
188.248
173.945
158.316
141.551
123.877
105.569
86.9549
68.4148
50.3662
33.2434
17.4687
3.41937
-8.60493
-18.4097
-25.9243
-31.2093
-34.45
-35.9377
-36.0403
-35.1653
-33.7207
-32.077
-30.5358
-29.3078
-28.5026
-28.1302
-28.1141
-28.3133
-28.5491
-28.6344
-28.4006
-27.7194
-26.5173
-24.7816
-22.558
-19.9408
-17.058
-14.0538
-11.0703
-8.23169
-5.63249
-3.3305
-1.34523
0.338711
1.76405
2.99064
4.08402
5.10425
6.09648
7.08411
8.0654
9.01358
9.88032
10.6021
11.1082
11.3302
11.2103
10.7095
9.81263
8.53121
6.90354
4.99163
2.87591
0.648308
-1.59568
-3.76477
-5.77891
-7.57472
-9.10886
-10.3592
-11.3236
-12.0173
-12.4683
-12.7123
-12.7877
-12.7309
-12.5726
-12.3354
-12.0325
-11.6689
-11.2421
-10.7452
-10.1692
-9.50656
-8.75355
-7.91241
-6.9927
-6.01159
-4.99323
-3.96722
-2.96637
-2.02401
-1.17125
-0.434332
0.16743
0.623107
0.930751
1.09717
1.13691
1.07063
0.923121
0.721144
0.491458
0.259183
0.0466816
-0.126979
-0.245978
-0.297205
-0.269378
-0.152031
0.0654341
0.394419
0.847407
1.43779
2.17927
3.08493
4.16616
5.43153
6.88594
8.52996
10.3596
12.3664
14.5379
16.8577
19.3064
21.8616
24.4972
27.1838
29.887
32.5665
35.175
37.6574
39.9505
41.9837
43.681
44.9644
45.7581
45.9941
45.6187
44.598
42.9234
40.6152
37.7245
34.3311
30.54
26.4743
22.266
18.046
13.9335
10.0266
6.3955
3.07857
0.0818311
-2.61758
-5.065
-7.31981
-9.44649
-11.507
-13.5559
-15.6397
-17.8
-20.0782
-22.5212
-25.1804
-28.1023
-31.3042
-34.7333
-38.2087
-41.3541
-43.5326
-43.804
-40.9282
-33.4365
-19.7849
1.41259
31.0933
69.4424
115.634
167.682
222.439
275.799
323.058
359.436
380.658
383.528
366.404
329.491
274.915
206.547
129.61
50.1151
-25.8028
-92.5496
-145.663
-182.251
-201.228
-203.332
-190.926
-167.624
-137.796
-106.017
-76.5436
-52.8575
-37.3474
-31.1439
-34.1186
-45.0318
-61.799
-81.8309
-102.401
-120.993
-135.586
-144.86
-148.281
-146.104
-139.261
-129.191
-117.615
-106.299
-96.8175
-90.3659
-87.6188
-88.6616
-92.9939
-99.6038
-107.1
-113.887
-118.353
-119.066
-114.931
-105.309
-90.0868
-69.6715
-44.94
-17.131
12.2947
41.8123
69.9894
95.6228
117.843
136.174
150.55
161.284
169.004
174.555
178.894
182.978
187.666
193.636
201.331
210.93
222.352
235.275
249.189
263.449
277.338
290.134
301.16
309.83
315.676
318.367
317.711
313.646
306.23
295.616
282.042
265.81
247.275
226.832
204.916
181.992
158.553
135.108
112.175
90.2595
69.8388
51.3363
35.0984
21.3734
10.295
1.87292
-4.00704
-7.57393
-9.15303
-9.13975
-7.96845
-6.07912
-3.88515
-1.74524
0.0581879
1.33233
1.97838
1.98722
1.42734
0.427019
-0.847393
-2.21432
-3.49881
-4.55129
-5.26153
-5.56709
-5.45556
-4.9612
-4.15658
-3.14064
-2.02478
-0.918737
0.0819431
0.905114
1.50691
1.87174
2.00778
1.93907
1.69572
1.3044
0.780544
0.123829
-0.682451
-1.66815
-2.86984
-4.32245
-6.05035
-8.05957
-10.3322
-12.8243
-15.4669
-18.1705
-20.8324
-23.3452
-25.6061
-27.5252
-29.0319
-30.0798
-30.648
-30.7409
-30.3849
-29.6241
-28.5155
-27.1229
-25.5127
-23.7496
-21.8936
-19.9983
-18.1103
-16.2682
-14.5034
-12.8396
-11.2939
-9.87607
-8.58964
-7.43213
-6.39592
-5.4695
-4.6389
-3.8893
-3.20667
-2.57898
-1.99702
-1.45455
-0.947735
-0.474056
-0.0308884
0.386017
0.783733
1.17278
1.56695
1.9823
2.43536
2.94086
3.50934
4.14504
4.84442
5.59582
6.38013
7.17277
7.94649
8.6749
9.33597
9.91517
10.4078
10.82
11.1686
11.4795
11.7851
12.1212
12.5239
13.0265
13.6575
14.4394
15.3878
16.5121
17.8149
19.2917
20.9292
22.703
24.5739
26.4841
28.3544
30.0829
31.5456
32.6016
33.1005
32.8946
31.8525
29.8741
26.9055
22.9494
18.0731
12.4086
6.14753
-0.470893
-7.1767
-13.6897
-19.7414
-25.0957
-29.5674
-33.0348
-35.447
-36.8249
-37.255
-36.879
-35.878
-34.4552
-32.8171
-31.1546
-29.6251
-28.3331
-27.3102
-26.4891
-25.6725
-24.4968
-22.3952
-18.5725
-12.0057
-1.49048
14.2521
36.4029
65.8145
102.753
146.659
195.975
248.098
299.494
345.972
383.116
406.805
413.754
402.008
371.278
323.1
260.748
188.937
113.329
39.9247
-25.6003
-78.5009
-115.456
-134.88
-137.018
-123.824
-98.6519
-65.7951
-29.9475
4.34462
33.1764
53.666
64.1881
64.4406
55.3527
38.8564
17.5602
-5.62544
-27.8639
-46.7235
-60.427
-67.9988
-69.2997
-64.9562
-56.2038
-44.6694
-32.1274
-20.2605
-10.455
-3.65147
-0.265824
-0.182319
-2.81409
-7.21714
-12.2392
-16.6818
-19.455
-19.7056
-16.9061
-10.896
-1.87584
9.6436
22.9248
37.108
51.3222
64.7882
76.9013
87.2873
95.824
102.632
108.037
112.507
116.581
120.795
125.612
131.366
138.23
146.201
155.11
164.649
174.414
183.947
192.793
200.534
206.823
211.403
214.106
214.846
213.597
210.371
205.195
198.095
189.087
178.184
165.415
150.852
134.637
117.011
98.3351
79.0846
59.8376
41.2373
23.9412
8.56131
-4.39509
-14.578
-21.831
-26.2065
-27.9582
-27.5116
-25.4151
-22.2808
-18.7196
-15.2812
-12.4036
-10.38
-9.34299
-9.26966
-10.0031
-11.2878
-12.8126
-14.2567
-15.3315
-15.8151
-15.575
-14.5779
-12.8862
-10.6437
-8.0517
-5.34065
-2.74056
-0.45378
1.36641
2.6295
3.31263
3.45676
3.15549
2.53852
1.75224
0.940451
0.227315
-0.295158
-0.57417
-0.597292
-0.388232
0.00161601
0.504243
1.04691
1.56312
2.00127
2.33
2.53991
2.64178
2.66192
2.63572
2.60034
2.58788
2.61986
2.70367
2.83137
2.98081
3.11871
3.20515
3.19896
3.0631
2.76958
2.30323
1.66389
0.866882
-0.0584503
-1.07191
-2.12697
-3.17603
-4.17591
-5.0926
-5.90483
-6.60578
-7.20264
-7.71402
-8.16551
-8.58394
-8.99121
-9.39858
-9.80249
-10.1827
-10.503
-10.7153
-10.7655
-10.6018
-10.1829
-9.48608
-8.51251
-7.29024
-5.87324
-4.33702
-2.77118
-1.26985
0.0786319
1.2015
2.04949
2.60202
2.86891
2.88874
2.72407
2.45432
2.16732
1.95053
1.88297
2.02877
2.43284
3.11909
4.09106
5.33487
6.8239
8.5246
10.4024
12.427
14.5758
16.8352
19.1985
21.661
24.213
26.8313
29.4713
32.061
34.4992
36.6578
38.3904
39.5446
39.9774
39.5729
38.2572
36.0108
32.8748
28.9503
24.3923
19.3953
14.1769
8.95697
3.93839
-0.710394
-4.86836
-8.46906
-11.5016
-14.0056
-16.0611
-17.7751
-19.2665
-20.6518
-22.0328
-23.4876
-25.0659
-26.7866
-28.636
-30.5636
-32.4703
-34.186
-35.4346
-35.7886
-34.6235
-31.0842
-24.0862
-12.3705
5.37224
30.3063
63.1996
104.151
152.352
205.93
261.933
316.49
365.131
403.258
426.695
432.243
418.15
384.425
332.946
267.321
192.543
114.458
39.1313
-27.8113
-81.7764
-119.661
-140.117
-143.606
-132.229
-109.389
-79.3113
-46.5094
-15.2554
10.8799
29.3637
38.8868
39.3863
31.917
18.402
1.30337
-16.7402
-33.2588
-46.2417
-54.3401
-56.9676
-54.2945
-47.1486
-36.8432
-24.9606
-13.1235
-2.78278
4.95219
9.42442
10.4728
8.40935
3.93961
-1.95842
-8.17756
-13.6271
-17.3624
-18.6842
-17.1983
-12.8316
-5.8086
3.40748
14.1953
25.8676
37.761
49.3132
60.119
69.9601
78.8073
86.7983
94.1955
101.331
108.55
116.149
124.339
133.211
142.723
152.712
162.91
172.985
182.574
191.329
198.948
205.197
209.925
213.055
214.571
214.489
212.833
209.603
204.765
198.238
189.907
179.652
167.377
153.062
136.797
118.815
99.5134
79.4379
59.2595
39.722
21.5764
5.50991
-7.92345
-18.3589
-25.6572
-29.9163
-31.4559
-30.7785
-28.5111
-25.3352
-21.9148
-18.829
-16.5199
-15.2576
-15.129
-16.047
-17.7803
-19.9967
-22.3152
-24.3592
-25.8043
-26.4153
-26.0692
-24.7615
-22.5976
-19.7709
-16.5316
-13.1519
-9.89063
-6.96406
-4.52395
-2.64649
-1.33186
-0.513514
-0.0750999
0.128065
0.246258
0.414485
0.736033
1.27207
2.03794
3.0057
4.11189
5.26871
6.37681
7.33778
8.06507
8.49195
8.57636
8.30236
7.67869
6.73503
5.51691
4.08004
2.48481
0.791677
-0.942386
-2.66612
-4.33507
-5.91173
-7.36512
-8.67009
-9.80655
-10.7589
-11.5157
-12.0695
-12.4165
-12.5571
-12.4952
-12.2383
-11.7975
-11.187
-10.424
-9.52875
-8.52454
-7.43766
-6.29709
-5.13387
-3.97991
-2.86633
-1.82134
-0.868144
-0.0229255
0.706506
1.32124
1.83081
2.25167
2.60503
2.914
3.20073
3.48377
3.77598
4.08323
4.40407
4.73033
5.04859
5.34227
5.59414
5.78896
5.9159
5.97068
5.957
5.88749
5.78392
5.67679
5.60461
5.61275
5.75222
6.07822
6.64839
7.52057
8.74974
10.3841
12.4604
14.998
17.9938
21.4168
25.2039
29.258
33.4485
37.6138
41.5669
45.1018
48.0025
50.0523
51.045
50.7963
49.1582
46.0328
41.3877
35.2692
27.8133
19.2502
9.90224
0.171916
-9.47916
-18.5609
-26.5923
-33.1423
-37.8701
-40.5608
-41.15
-39.736
-36.5762
-32.0669
-26.7097
-21.0655
-15.7033
-11.1474
-7.83053
-6.05644
-5.97685
-7.58268
-10.7084
-15.0443
-20.1506
-25.4649
-30.2998
-33.8282
-35.0657
-32.8623
-25.9252
-12.8935
7.52216
36.3327
74.0183
120.268
173.77
232.099
291.766
348.44
397.336
433.733
453.555
453.919
433.58
393.18
335.284
264.162
185.357
105.1
29.627
-35.4869
-85.9077
-118.961
-133.842
-131.599
-114.9
-87.6354
-54.3933
-19.8986
11.5235
36.3949
52.3946
58.5064
54.9997
43.2598
25.503
4.41987
-17.2006
-36.8207
-52.4364
-62.7633
-67.3151
-66.3736
-60.8661
-52.1743
-41.9055
-31.6587
-22.8157
-16.3813
-12.887
-12.3666
-14.3978
-18.199
-22.7644
-27.0143
-29.9414
-30.7343
-28.863
-24.1212
-16.6226
-6.75633
4.88667
17.6068
30.6918
43.5043
55.5505
66.5225
76.3133
85.0043
92.8313
100.136
107.308
114.732
122.733
131.542
141.268
151.894
163.274
175.159
187.216
199.066
210.315
220.585
229.543
236.913
242.488
246.124
247.733
247.264
244.692
239.997
233.163
224.172
213.013
199.702
184.303
166.954
147.893
127.474
106.173
84.574
63.342
43.1804
24.7755
8.73832
-4.45222
-14.4951
-21.2967
-24.9801
-25.8712
-24.4653
-21.3751
-17.2697
-12.8086
-8.58082
-5.05432
-2.54182
-1.18547
-0.961212
-1.70094
-3.12859
-4.90488
-6.67477
-8.11196
-8.95532
-9.03374
-8.27756
-6.71659
-4.46631
-1.7057
1.34928
4.47188
7.44626
10.0813
12.2151
13.7095
14.4381
14.2706
13.058
10.6252
6.77363
1.29702
-5.99041
-15.217
-26.4138
-39.4781
-54.1501
-70.0058
-86.4717
-102.861
-118.427
-132.43
-144.204
-153.224
-159.151
-161.863
-161.465
-158.263
-152.731
-145.459
-137.09
-128.263
-119.559
-111.461
-104.326
-98.3765
-93.7008
-90.2652
-87.9335
-86.4892
-85.6585
-85.1315
-84.5819
-83.6846
-82.1325
-79.6528
-76.0237
-71.0906
-64.781
-57.116
-48.2166
-38.3021
-27.6799
-16.7263
-5.8598
4.49198
13.927
22.1017
28.759
33.7471
37.0273
38.6716
38.8487
37.8025
35.8252
33.2284
30.3159
27.3607
24.5882
22.1662
20.202
18.7451
17.7933
17.3011
17.186
17.3339
17.6
17.808
17.7481
17.1778
15.8279
13.4163
9.67224
4.3691
-2.63698
-11.3671
-21.685
-33.2751
-45.6377
-58.1079
-69.896
-80.1511
-88.0393
-92.829
-93.9742
-91.1834
-84.465
-74.1431
-60.8398
-45.4257
-28.9432
-12.5125
2.76997
15.9293
26.1955
33.0647
36.3318
36.0929
32.7197
26.8076
19.1061
10.4399
1.62703
-6.59494
-13.6289
-19.0589
-22.6691
-24.4401
-24.5258
-23.2144
-20.8796
-17.9283
-14.7516
-11.6847
-8.97866
-6.78904
-5.17798
-4.1297
-3.57336
-3.40739
-3.51733
-3.78007
-4.04855
-4.11441
-3.6521
-2.15438
1.12317
7.18593
17.2685
32.7296
54.8673
84.6695
122.532
167.992
219.546
274.587
329.517
380.027
421.537
449.723
461.072
453.376
426.084
380.461
319.518
247.723
170.527
93.7704
23.0472
-36.8888
-82.6027
-112.283
-125.842
-124.811
-112.051
-91.3266
-66.8032
-42.54
-22.0316
-7.85808
-1.47507
-3.15685
-12.0875
-26.5746
-44.3478
-62.8985
-79.8134
-93.0635
-101.216
-103.553
-100.091
-91.5044
-78.987
-64.0539
-48.3317
-33.3549
-20.3947
-10.3383
-3.62665
-0.252648
0.186594
-1.60419
-4.73805
-8.27367
-11.3344
-13.205
-13.395
-11.6662
-8.0219
-2.66556
4.06284
11.7615
20.0402
28.5823
37.1862
45.7829
54.429
63.2782
72.5377
82.4181
93.0849
104.62
116.998
130.08
143.63
157.338
170.856
183.846
196.003
207.094
216.959
225.514
232.728
238.596
243.105
246.197
247.746
247.547
245.321
240.74
233.466
223.207
209.774
193.14
173.476
151.183
126.885
101.399
75.6815
50.7509
27.5987
7.10156
-10.0574
-23.4474
-32.9212
-38.6175
-40.9319
-40.4646
-37.9483
-34.1682
-29.8823
-25.7514
-22.2856
-19.8118
-18.465
-18.2006
-18.8254
-20.0409
-21.4934
-22.8245
-23.7145
-23.9172
-23.2809
-21.756
-19.3894
-16.3088
-12.6984
-8.77179
-4.74439
-0.808961
2.88274
6.23098
9.19096
11.7683
14.0081
15.9804
17.7628
19.4252
21.0155
22.5513
24.0161
25.3611
26.5123
27.3813
27.8782
27.9247
27.466
26.4791
24.9775
23.0107
20.6603
18.0323
15.2466
12.4268
9.68902
7.13359
4.83845
2.85586
1.21189
-0.0915689
-1.07293
-1.76635
-2.21731
-2.479
-2.61015
-2.67404
-2.73835
-2.87516
-3.16007
-3.66978
-4.47751
-5.64627
-7.22051
-9.21721
-11.6179
-14.363
-17.3509
-20.4409
-23.4628
-26.23
-28.5573
-30.2797
-31.27
-31.4544
-30.822
-29.4282
-27.3909
-24.8793
-22.0973
-19.2627
-16.5846
-14.2421
-12.3661
-11.0273
-10.2301
-9.91538
-9.96987
-10.2421
-10.5622
-10.7638
-10.7044
-10.2822
-9.44669
-8.20274
-6.60626
-4.75354
-2.76532
-0.768143
1.12431
2.82705
4.29468
5.52582
6.56056
7.47152
8.3501
9.29007
10.3711
11.6445
13.1243
14.7829
16.5548
18.3447
20.0409
21.5312
22.7184
23.5339
23.9471
23.968
23.6453
23.0569
22.2973
21.4619
20.6319
19.8611
19.1674
18.5302
17.8935
17.1746
16.2776
15.108
13.5885
11.6716
9.34837
6.65265
3.65859
0.473684
-2.77273
-5.94342
-8.908
-11.5564
-13.8099
-15.6275
-17.0089
-17.9916
-18.6458
-19.0651
-19.3562
-19.6288
-19.984
-20.5032
-21.2335
-22.1676
-23.2143
-24.1595
-24.6173
-23.9809
-21.3856
-15.7054
-5.60279
10.3513
33.4819
64.7531
104.484
152.09
205.902
263.127
319.978
371.987
414.458
443.027
454.23
445.995
417.994
371.771
310.649
239.403
163.742
89.6864
22.9015
-31.9094
-71.485
-94.2984
-100.633
-92.4417
-73.0183
-46.5311
-17.4846
9.81945
31.7575
45.7404
50.4178
45.7172
32.7272
13.4516
-9.52319
-33.3988
-55.5257
-73.7104
-86.4352
-92.974
-93.3988
-88.4864
-79.548
-68.2095
-56.1747
-45.003
-35.9273
-29.732
-26.6981
-26.6188
-28.8738
-32.5496
-36.584
-39.9168
-41.6256
-41.0313
-37.764
-31.7834
-23.3558
-12.9944
-1.37296
10.7739
22.7511
33.9903
44.1163
52.9833
60.6805
67.5077
73.9248
80.4842
87.755
96.2477
106.349
118.274
132.038
147.454
164.15
181.605
199.196
216.261
232.145
246.259
258.111
267.339
273.708
277.114
277.56
275.13
269.962
262.217
252.06
239.643
225.109
208.597
190.265
170.311
149
126.683
103.801
80.8834
58.5211
37.3342
17.9244
0.823679
-13.5534
-24.9502
-33.2938
-38.7024
-41.4733
-42.053
-40.9916
-38.8882
-36.3322
-33.849
-31.854
-30.6215
-30.2701
-30.7668
-31.9465
-33.5457
-35.2446
-36.7126
-37.6519
-37.834
-37.1254
-35.5
-33.0375
-29.9096
-26.3551
-22.6485
-19.0663
-15.8549
-13.2038
-11.2284
-9.9612
-9.35542
-9.29656
-9.62188
-10.144
-10.6756
-11.0517
-11.1473
-10.8887
-10.2569
-9.28396
-8.04396
-6.63878
-5.1825
-3.78573
-2.54207
-1.51818
-0.748407
-0.234111
0.0525589
0.161459
0.155027
0.0981488
0.0487487
0.0503422
0.127413
0.284004
0.505428
0.762575
1.01795
1.23241
1.37158
1.41097
1.33924
1.15934
0.887356
0.549799
0.179537
-0.188664
-0.522459
-0.795473
-0.989703
-1.0966
-1.11682
-1.0589
-0.93712
-0.769058
-0.573127
-0.366517
-0.163695
0.0244167
0.190662
0.331385
0.445856
0.535572
0.603569
0.653847
0.690964
0.719777
0.745286
0.772527
0.806458
0.851793
0.912802
0.993073
1.09529
1.22104
1.37074
1.5436
1.73785
1.95099
2.18023
2.42298
2.67738
2.94282
3.22037
3.51309
3.82616
4.16678
4.54364
4.96605
5.44247
5.97855
6.57476
7.22381
7.90833
8.59914
9.25473
9.82211
10.2396
10.4409
10.3614
9.94405
9.14628
7.94567
6.34388
4.36816
2.07023
-0.47775
-3.18939
-5.97184
-8.73412
-11.3948
-13.8881
-16.1679
-18.2093
-20.0071
-21.5727
-22.9295
-24.1072
-25.1367
-26.0458
-26.856
-27.5814
-28.2296
-28.8042
-29.3088
-29.7518
-30.1503
-30.5331
-30.9386
-31.4085
-31.973
-32.6265
-33.2919
-33.7747
-33.7107
-32.5163
-29.3556
-23.1446
-12.6093
3.58701
26.6468
57.387
95.9685
141.656
192.666
246.149
298.341
344.883
381.283
403.458
408.281
394.043
360.766
310.302
246.208
173.391
97.594
24.7642
-39.5938
-91.0035
-126.467
-144.724
-146.301
-133.346
-109.281
-78.3365
-45.0095
-13.5426
12.5351
30.7417
39.8248
39.7809
31.7239
17.6315
0.0118493
-18.4618
-35.3
-48.4885
-56.6924
-59.3546
-56.6879
-49.5717
-39.374
-27.7288
-16.3
-6.5629
0.371781
3.87239
3.8308
0.637301
-4.90469
-11.7083
-18.5568
-24.2603
-27.7952
-28.4109
-25.6939
-19.5848
-10.3513
1.47585
15.1913
30.0154
45.1916
60.0703
74.1691
87.2056
99.101
109.957
120.015
129.596
139.045
148.674
158.714
169.287
180.39
191.9
203.593
215.17
226.296
236.629
245.855
253.704
259.966
264.485
267.158
267.911
266.69
263.442
258.111
250.637
240.96
229.043
214.888
198.562
180.217
160.114
138.621
116.216
93.4651
70.9909
49.4337
29.403
11.43
-4.07503
-16.8543
-26.821
-34.0606
-38.8158
-41.4574
-42.4437
-42.2737
-41.4395
-40.3827
-39.4599
-38.9195
-38.8925
-39.3955
-40.3471
-41.5918
-42.9298
-44.1484
-45.0502
-45.4777
-45.3279
-44.5613
-43.1997
-41.3194
-39.0367
-36.492
-33.8325
-31.1962
-28.6992
-26.4276
-24.4332
-22.7344
-21.3197
-20.1549
-19.1906
-18.3699
-17.636
-16.9373
-16.231
-15.4849
-14.6775
-13.7965
-12.8378
-11.8031
-10.6989
-9.53541
-8.32643
-7.08941
-5.84567
-4.62037
-3.44191
-2.34075
-1.34741
-0.490031
0.208377
0.732444
1.07648
1.2456
1.25576
1.1326
0.909266
0.623376
0.313515
0.0157163
-0.239699
-0.430551
-0.544246
-0.578103
-0.538611
-0.439734
-0.300558
-0.142567
0.0130767
0.147957
0.24826
0.305903
0.318864
0.290763
0.229803
0.147272
0.0558355
-0.032166
-0.106191
-0.158598
-0.185269
-0.185737
-0.162842
-0.122026
-0.0703646
-0.0155191
0.0352881
0.0761263
0.102966
0.114
0.109705
0.0926816
0.0674072
0.0399747
0.0179386
0.0103097
0.0277038
0.0825817
0.189461
0.36496
0.627531
0.996845
1.49287
2.13485
2.94035
3.92477
5.10107
6.48001
8.07024
9.87816
11.9071
14.1557
16.6151
19.2652
22.0712
24.9788
27.9118
30.7701
33.4317
35.7573
37.5993
38.8131
39.2715
38.8789
37.5845
35.3919
32.3633
28.618
24.3248
19.688
14.9301
10.2717
5.91235
2.01384
-1.31245
-4.01192
-6.08713
-7.59215
-8.62222
-9.29999
-9.76052
-10.137
-10.5485
-11.0917
-11.8359
-12.8213
-14.0575
-15.5208
-17.1441
-18.7975
-20.2564
-21.1587
-20.9557
-18.8715
-13.8852
-4.7602
9.86393
31.3064
60.6132
98.2847
144.007
196.44
253.129
310.562
364.421
409.985
442.663
458.566
455.049
431.128
387.708
327.572
255.143
176.024
96.3937
22.3351
-40.8236
-89.0594
-120.036
-133.271
-130.083
-113.327
-86.9699
-55.5636
-23.6905
4.55493
25.9834
38.5874
41.6541
35.7145
22.3509
3.89657
-16.9242
-37.3678
-55.0081
-68.0011
-75.2515
-76.4717
-72.1347
-63.3385
-51.6063
-38.6523
-26.1481
-15.5146
-7.76734
-3.42521
-2.49145
-4.50027
-8.61815
-13.7816
-18.8506
-22.7577
-24.6334
-23.8957
-20.2941
-13.9084
-5.10576
5.53522
17.3195
29.5367
41.5542
52.8917
63.2679
72.6177
81.0786
88.9517
96.6447
104.604
113.25
122.914
133.797
145.942
159.226
173.376
187.996
202.605
216.686
229.727
241.266
250.916
258.386
263.484
266.109
266.234
263.886
259.116
251.986
242.552
230.86
216.958
200.909
182.818
162.854
141.278
118.454
94.8516
71.0365
47.6415
25.3268
4.73158
-13.5784
-29.1589
-41.7263
-51.182
-57.6194
-61.3114
-62.6811
-62.2577
-60.6246
-58.3634
-56.0016
-53.9692
-52.5679
-51.9564
-52.151
-53.0421
-54.4225
-56.023
-57.5527
-58.7364
-59.3475
-59.2316
-58.3193
-56.6277
-54.2519
-51.3473
-48.1069
-44.7364
-41.4293
-38.3471
-35.6039
-33.259
-31.3166
-29.7317
-28.4217
-27.2809
-26.196
-25.0608
-23.7877
-22.3166
-20.6179
-18.6929
-16.569
-14.2936
-11.9254
-9.52643
-7.15388
-4.85425
-2.65949
-0.585639
1.3662
3.20685
4.95477
6.63114
8.25515
9.84008
11.3908
12.9028
14.3626
15.7503
17.0417
18.2127
19.2415
20.1124
20.8167
21.3539
21.7309
21.9606
22.0591
22.0436
21.9296
21.7287
21.4478
21.0887
20.6491
20.1247
19.5109
18.8058
18.012
17.1384
16.1998
15.2171
14.2145
13.2177
12.2501
11.3301
10.4686
9.66723
8.91792
8.2041
7.50261
6.78676
6.02984
5.20859
4.30626
3.31475
2.23563
1.07998
-0.132991
-1.37818
-2.62728
-3.85158
-5.02435
-6.12254
-7.1275
-8.02477
-8.80299
-9.4522
-9.96205
-10.3201
-10.5108
-10.5155
-10.313
-9.88192
-9.20256
-8.25999
-7.04619
-5.56174
-3.81712
-1.83411
0.351336
2.68333
5.0762
7.40047
9.4659
11.0049
11.6604
10.985
8.45397
3.49834
-4.44359
-15.858
-31.0774
-50.2028
-73.0365
-99.04
-127.325
-156.685
-185.672
-212.702
-236.202
-254.751
-267.223
-272.908
-271.59
-263.571
-249.652
-231.056
-209.31
-186.1
-163.114
-141.887
-123.669
-109.336
-99.3287
-93.6528
-91.9131
-93.3861
-97.1125
-101.995
-106.885
-110.642
-112.166
-110.393
-104.274
-92.7608
-74.8141
-49.4676
-15.957
26.0904
76.4312
133.992
196.722
261.562
324.573
381.232
426.863
457.173
468.792
459.754
429.834
380.684
315.738
239.897
159.034
79.3745
6.83716
-53.5748
-98.2663
-125.363
-134.817
-128.291
-108.871
-80.6125
-48.0308
-15.5599
12.9279
34.4995
47.3967
51.1133
46.3193
34.6539
18.4237
0.252918
-17.27
-31.9045
-41.9964
-46.6199
-45.6161
-39.5333
-29.4861
-16.9588
-3.58253
9.08236
19.7341
27.4649
31.8332
32.8691
31.0193
27.0438
21.883
16.5137
11.816
8.46514
6.86078
7.10028
8.99391
12.1169
15.8882
19.6624
22.8224
24.8598
25.4343
24.4055
21.8355
17.9651
13.1691
7.89813
2.6175
-2.24869
-6.36043
-9.4864
-11.5083
-12.4063
-12.23
-11.0611
-8.97707
-6.02161
-2.18947
2.57193
8.34379
15.2032
23.1821
32.2255
42.156
52.6523
63.2463
73.3423
82.2566
89.2753
93.7241
95.0407
92.8415
86.9749
77.5514
64.9483
49.7863
32.8799
15.1672
-2.37291
-18.8078
-33.3314
-45.33
-54.4266
-60.4984
-63.6692
-64.2765
-62.8194
-59.8944
-56.1274
-52.1087
-48.3392
-45.1921
-42.8926
-41.5166
-41.0055
-41.1942
-41.8466
-42.6946
-43.4741
-43.956
-43.9679
-43.4069
-42.2414
-40.5049
-38.2829
-35.6955
-32.8783
-29.9639
-27.0666
-24.2709
-21.6259
-19.1445
-16.8085
-14.5767
-12.3967
-10.2162
-7.99476
-5.71229
-3.37439
-1.01337
1.31483
3.53754
5.57486
7.35038
8.80173
9.88924
10.6016
10.9578
11.0043
10.8097
10.455
10.023
9.58743
9.20353
8.90108
8.68156
8.51915
8.36583
8.15951
7.83414
7.33023
6.60425
5.6357
4.43072
3.02195
1.46479
-0.169477
-1.80237
-3.35763
-4.76993
-5.99169
-6.99713
-7.78325
-8.36759
-8.78343
-9.0731
-9.28067
-9.44487
-9.59344
-9.73962
-9.8811
-10.0016
-10.0743
-10.0674
-9.94946
-9.69481
-9.28805
-8.7266
-8.02152
-7.19637
-6.28466
-5.32623
-4.36312
-3.4356
-2.57873
-1.81987
-1.17719
-0.659274
-0.26572
0.0115448
0.186432
0.276649
0.301688
0.281089
0.233176
0.174369
0.119171
0.0807691
0.0721628
0.107633
0.204319
0.383648
0.672352
1.10283
1.71265
2.54315
3.63703
5.03523
6.77344
8.87847
11.3651
14.2336
17.4678
21.0338
24.8802
28.9378
33.1208
37.3299
41.455
45.381
48.9933
52.185
54.8632
56.9545
58.4087
59.2006
59.329
58.814
57.6929
56.0152
53.8384
51.2248
48.2393
44.9497
41.4271
37.7476
33.9934
30.2521
26.6152
23.1741
20.0143
17.2083
14.808
12.8375
11.2867
10.1066
9.20607
8.45011
7.65899
6.60915
5.03608
2.64092
-0.896863
-5.89824
-12.6522
-21.3706
-32.1292
-44.7975
-58.9627
-73.8575
-88.3085
-100.726
-109.16
-111.437
-105.394
-89.19
-61.6595
-22.6639
26.6427
83.691
144.572
204.332
257.46
298.52
322.839
327.142
310.04
272.292
216.796
148.299
72.8688
-2.79634
-72.1386
-129.477
-170.621
-193.277
-197.222
-184.207
-157.643
-122.097
-82.6899
-44.4697
-11.8375
11.9033
24.8304
26.4967
17.842
0.945476
-21.3326
-45.7691
-69.1983
-88.8838
-102.802
-109.814
-109.711
-103.151
-91.4882
-76.5479
-60.355
-44.8695
-31.7514
-22.1814
-16.754
-15.4489
-17.678
-22.3968
-28.2621
-33.8141
-37.6613
-38.6435
-35.9591
-29.2397
-18.5701
-4.45205
12.2785
30.5696
49.2893
67.3624
83.8918
98.2502
110.134
119.572
126.9
132.694
137.684
142.65
148.332
155.334
164.069
174.713
187.202
201.25
216.385
232.016
247.485
262.14
275.381
286.708
295.739
302.217
306.001
307.042
305.357
301.001
294.042
284.547
272.578
258.199
241.493
222.587
201.676
179.049
155.107
130.366
105.45
81.0596
57.9376
36.8115
18.3361
3.03548
-8.74631
-16.8801
-21.466
-22.8255
-21.4713
-18.0581
-13.32
-8.00141
-2.79022
1.74085
5.17694
7.28497
8.0167
7.49194
5.96538
3.78169
1.32492
-1.0315
-2.96876
-4.25588
-4.76932
-4.49789
-3.53367
-2.05166
-0.28214
1.51927
3.09837
4.22154
4.6841
4.30745
2.92724
0.377357
-3.5237
-8.97743
-16.1957
-25.3744
-36.6522
-50.0595
-65.4662
-82.5388
-100.718
-119.223
-137.088
-153.233
-166.557
-176.044
-180.88
-180.544
-174.881
-164.137
-148.947
-130.284
-109.375
-87.5844
-66.2839
-46.7311
-29.9563
-16.681
-7.27
-1.72433
0.289029
-0.625784
-3.67961
-7.9966
-12.7129
-17.0648
-20.4567
-22.5041
-23.0479
-22.1417
-20.0163
-17.0277
-13.5958
-10.144
-7.04419
-4.57565
-2.90023
-2.05531
-1.96365
-2.45705
-3.30924
-4.27287
-5.11523
-5.64841
-5.75029
-5.37466
-4.55026
-3.36983
-1.97167
-0.516681
0.835623
1.949
2.72761
3.12656
3.15499
2.87196
2.37608
1.79074
1.24709
0.866904
0.747633
0.951155
1.4974
2.36333
3.48703
4.77617
6.11961
7.40059
8.50998
9.35797
9.88322
10.0583
9.8915
9.42423
8.72563
7.88398
6.99682
6.16042
5.46022
4.963
4.71191
4.72476
4.99566
5.49968
6.19974
7.05437
8.02526
9.08301
10.21
11.4001
12.6544
13.9748
15.3554
16.7748
18.1894
19.5307
20.7071
21.6097
22.1232
22.1385
21.567
20.3533
18.485
15.9975
12.9733
9.53605
5.83918
2.05191
-1.65649
-5.1315
-8.24575
-10.9074
-13.064
-14.7019
-15.8421
-16.5332
-16.8442
-16.8574
-16.6629
-16.3545
-16.0277
-15.776
-15.6845
-15.8165
-16.1901
-16.742
-17.2802
-17.4302
-16.5876
-13.8943
-8.26007
1.55348
16.7742
38.3946
66.9048
102.031
142.531
186.115
229.521
268.769
299.583
317.918
320.521
305.444
272.41
222.98
160.476
89.6668
16.2645
-53.7191
-114.649
-161.897
-192.336
-204.645
-199.384
-178.842
-146.688
-107.48
-66.0994
-27.1788
5.38928
28.8268
41.68
43.8562
36.4969
21.7165
2.25133
-18.9312
-39.0115
-55.6402
-67.1701
-72.7785
-72.4763
-67.0135
-57.7041
-46.1986
-34.2379
-23.4215
-15.0143
-9.81468
-8.09324
-9.60217
-13.6489
-19.2178
-25.1216
-30.1596
-33.2645
-33.6197
-30.7362
-24.4845
-15.0798
-3.02946
10.9498
26.0307
41.3783
56.244
70.0409
82.3928
93.156
102.411
110.432
117.635
124.519
131.6
139.35
148.146
158.237
169.713
182.511
196.415
211.083
226.075
240.887
254.986
267.842
278.955
287.874
294.218
297.679
298.03
295.131
288.929
279.459
266.847
251.314
233.168
212.804
190.697
167.385
143.454
119.514
96.1714
74.0016
53.5165
35.1377
19.1729
5.799
-4.94432
-13.1518
-19.0388
-22.9185
-25.1717
-26.2125
-26.4535
-26.273
-25.9887
-25.8389
-25.9723
-26.449
-27.2479
-28.2826
-29.421
-30.5076
-31.3842
-31.9095
-31.9729
-31.5047
-30.48
-28.9172
-26.8739
-24.4375
-21.7161
-18.8273
-15.8882
-13.0065
-10.2734
-7.75844
-5.50689
-3.5387
-1.84982
-0.415051
0.807533
1.87103
2.83337
3.75078
4.67145
5.63025
6.64482
7.71358
8.81592
9.91442
10.9591
11.8927
12.6574
13.2
13.478
13.4627
13.1416
12.5184
11.6115
10.4519
9.07964
7.54085
5.88443
4.15967
2.41434
0.693267
-0.962524
-2.51651
-3.93724
-5.19892
-6.282
-7.17377
-7.86868
-8.36833
-8.68102
-8.82067
-8.80524
-8.65483
-8.38962
-8.02811
-7.58571
-7.07428
-6.50231
-5.87606
-5.20135
-4.48559
-3.73986
-2.98038
-2.22918
-1.51356
-0.864376
-0.313327
0.110506
0.384265
0.494544
0.439677
0.230697
-0.109247
-0.546979
-1.0426
-1.55357
-2.03892
-2.46314
-2.79914
-3.02989
-3.14871
-3.15818
-3.06793
-2.89169
-2.64407
-2.33761
-1.9804
-1.57448
-1.11536
-0.592284
0.010613
0.712717
1.53503
2.49826
3.62097
4.9181
6.39962
8.06955
9.92521
11.9567
14.1466
16.4702
18.8957
21.3853
23.8969
26.3862
28.8093
31.1258
33.3013
35.3087
37.1291
38.7495
40.1595
41.3467
42.2906
42.9586
43.3024
43.2585
42.7517
41.7025
40.0367
37.6968
34.6535
30.914
26.528
21.5881
16.2259
10.6024
4.89599
-0.713343
-6.05907
-11.0023
-15.4426
-19.3245
-22.6386
-25.4182
-27.7312
-29.6687
-31.3334
-32.8268
-34.2391
-35.6422
-37.0848
-38.5907
-40.1554
-41.7402
-43.2555
-44.5332
-45.2828
-45.0369
-43.0973
-38.498
-30.0117
-16.2221
4.32152
32.8685
70.1733
116.19
169.816
228.752
289.528
347.726
398.392
436.582
457.99
459.533
439.836
399.503
341.153
269.19
189.353
108.081
31.8019
-33.771
-84.2446
-116.975
-131.271
-128.366
-111.154
-83.7541
-50.9577
-17.6341
11.829
33.984
46.6333
48.9654
41.5145
25.9627
4.82497
-18.9375
-42.3191
-62.6379
-77.829
-86.6327
-88.6665
-84.3825
-74.9266
-61.927
-47.2445
-32.7192
-19.9455
-10.0999
-3.83882
-1.27048
-1.99918
-5.22736
-9.89786
-14.854
-18.9953
-21.4099
-21.4682
-18.8713
-13.6508
-6.12674
3.16672
13.5753
24.4229
35.1016
45.1421
54.2574
62.3588
69.5432
76.0595
82.2593
88.541
95.2943
102.853
111.456
121.226
132.161
144.132
156.9
170.136
183.442
196.382
208.505
219.369
228.56
235.715
240.53
242.772
242.284
238.987
232.883
224.046
212.622
198.825
182.926
165.26
146.215
126.233
105.805
85.4574
65.7361
47.1832
30.3057
15.5417
3.22629
-6.43734
-13.398
-17.7635
-19.7935
-19.8767
-18.4959
-16.1839
-13.4752
-10.8589
-8.73896
-7.40411
-7.01249
-7.59012
-9.04343
-11.1833
-13.7569
-16.4831
-19.0875
-21.3324
-23.0401
-24.1061
-24.503
-24.2745
-23.5225
-22.3887
-21.0332
-19.6143
-18.2695
-17.1024
-16.1733
-15.4972
-15.0467
-14.7591
-14.5477
-14.3145
-13.9629
-13.41
-12.5958
-11.4897
-10.0932
-8.43872
-6.58537
-4.61173
-2.60695
-0.661157
1.1438
2.74198
4.08878
5.16345
5.96873
6.52768
6.87843
7.06746
7.14261
7.14647
7.11115
7.05497
6.9814
6.88025
6.73092
6.50704
6.18199
5.73443
5.153
4.43978
3.61166
2.69987
1.74735
0.804557
-0.0757861
-0.844255
-1.45986
-1.89404
-2.13311
-2.17887
-2.04739
-1.76648
-1.37201
-0.903902
-0.40228
0.095852
0.558936
0.962134
1.28756
1.52368
1.66409
1.70616
1.6496
1.49542
1.24522
0.90089
0.464695
-0.0604248
-0.670425
-1.35973
-2.12083
-2.94405
-3.81733
-4.72613
-5.65339
-6.57957
-7.48265
-8.33833
-9.12026
-9.80054
-10.3505
-10.7416
-10.9475
-10.9455
-10.7187
-10.2587
-9.56653
-8.6547
-7.54659
-6.27561
-4.88285
-3.4138
-1.91452
-0.427772
1.0105
2.3737
3.64588
4.82169
5.90492
6.90607
7.83911
8.71823
9.55492
10.3559
11.1221
11.8494
12.5298
13.1538
13.7126
14.1995
14.6108
14.9444
15.1979
15.3651
15.4331
15.3797
15.1721
14.769
14.123
13.1874
11.922
10.3015
8.32187
6.00524
3.40243
0.591919
-2.32455
-5.22937
-7.99892
-10.5146
-12.6738
-14.3997
-15.6479
-16.4106
-16.7155
-16.6224
-16.2152
-15.5928
-14.8573
-14.1034
-13.4068
-12.8132
-12.3244
-11.8801
-11.3313
-10.404
-8.65559
-5.43204
0.160441
9.24936
23.1356
43.164
70.5233
105.99
149.656
200.682
257.148
316.04
373.404
424.68
465.171
490.6
497.662
484.503
451.033
399.039
332.056
255.028
173.79
94.4366
22.6778
-36.7574
-80.5809
-107.224
-116.903
-111.482
-94.1482
-68.9616
-40.3381
-12.5289
10.8369
27.0988
34.7674
33.5707
24.3535
8.8542
-10.6017
-31.4468
-51.2101
-67.8068
-79.7506
-86.2694
-87.3204
-83.5133
-75.961
-66.0835
-55.3943
-45.2982
-36.9237
-31.0087
-27.8468
-27.2956
-28.8398
-31.6949
-34.9347
-37.6237
-38.9378
-38.258
-35.2291
-29.779
-22.1001
-12.5997
-1.82917
9.59765
21.084
32.119
42.3287
51.5049
59.6114
66.7709
73.2358
79.3491
85.4994
92.0774
99.435
107.851
117.506
128.464
140.667
153.932
167.967
182.386
196.733
210.512
223.216
234.356
243.491
250.243
254.309
255.475
253.608
248.652
240.631
229.633
215.819
199.419
180.741
160.178
138.215
115.421
92.4455
69.988
48.7648
29.4606
12.676
-1.12563
-11.6626
-18.866
-22.8907
-24.1033
-23.0488
-20.3973
-16.8771
-13.2026
-10.0045
-7.77092
-6.80578
-7.20963
-8.88382
-11.5572
-14.8314
-18.2378
-21.3002
-23.5939
-24.7954
-24.7166
-23.3211
-20.721
-17.1563
-12.9602
-8.51589
-4.21057
-0.391807
2.66779
4.7946
5.92456
6.10028
5.45622
4.19475
2.55698
0.792245
-0.87006
-2.24298
-3.19701
-3.66658
-3.64824
-3.19183
-2.38646
-1.34374
-0.180488
0.996778
2.10398
3.0872
3.92551
4.62935
5.23503
5.79656
6.37612
7.03412
7.82027
8.76613
9.88004
11.1444
12.5157
13.9268
15.2913
16.51
17.478
18.0936
18.2657
17.9223
17.0162
15.5303
13.4789
10.908
7.89185
4.5276
0.928432
-2.78469
-6.49141
-10.0799
-13.4537
-16.5367
-19.2767
-21.6463
-23.6423
-25.2834
-26.6058
-27.6582
-28.4962
-29.1758
-29.7474
-30.2502
-30.7081
-31.1266
-31.492
-31.7736
-31.9267
-31.8988
-31.6372
-31.0963
-30.2453
-29.0743
-27.5983
-25.8578
-23.9164
-21.8564
-19.7703
-17.7525
-15.8897
-14.2523
-12.8878
-11.8165
-11.0304
-10.4953
-10.1553
-9.9395
-9.77059
-9.57279
-9.27998
-8.84218
-8.23011
-7.43737
-6.48027
-5.39512
-4.23376
-3.05754
-1.93059
-0.91314
-0.0555208
0.606533
1.05478
1.28943
1.32803
1.20275
0.956132
0.636185
0.291198
-0.0350522
-0.307212
-0.50102
-0.604529
-0.617878
-0.551759
-0.424879
-0.260798
-0.0845693
0.0804133
0.215012
0.306143
0.347647
0.340226
0.290563
0.209809
0.111699
0.0105558
-0.0805457
-0.151266
-0.194979
-0.209184
-0.195361
-0.158345
-0.105348
-0.044803
0.014834
0.0661425
0.103557
0.123865
0.126353
0.112646
0.0863609
0.0529985
0.0210865
0.00662213
0.0441103
0.208242
0.649514
1.6439
3.6509
7.36665
13.7519
24.0108
39.4998
61.5562
91.254
129.117
174.836
227.055
283.278
339.95
392.712
436.834
467.751
481.652
476.006
449.968
404.581
342.747
268.958
188.828
108.488
33.9153
-29.7028
-78.4992
-110.283
-124.688
-123.099
-108.382
-84.4589
-55.7924
-26.8403
-1.55721
17.0059
26.9622
27.6905
19.7775
4.82353
-14.8541
-36.5738
-57.6515
-75.7257
-89.0106
-96.4526
-97.7813
-93.4591
-84.5451
-72.4997
-58.9605
-45.5194
-33.5298
-23.9651
-17.3395
-13.697
-12.6597
-13.5253
-15.3944
-17.3094
-18.3857
-17.9209
-15.4716
-10.891
-4.32945
3.80052
12.8861
22.1949
30.9652
38.495
44.2234
47.7963
49.1108
48.3362
45.908
42.4961
38.9478
36.2111
35.2439
36.9194
41.9356
50.7405
63.4811
79.9805
99.7472
122.014
145.802
170.002
193.465
215.086
233.887
249.066
260.042
266.464
268.205
265.343
258.124
246.927
232.225
214.557
194.503
172.666
149.662
126.118
102.659
79.9027
58.4394
38.8112
21.4837
6.81779
-4.95768
-13.7644
-19.683
-22.9477
-23.9266
-23.0898
-20.9669
-18.1009
-15.001
-12.1015
-9.73039
-8.09009
-7.2529
-7.16969
-7.6907
-8.59484
-9.62387
-10.5172
-11.0434
-11.0253
-10.3563
-9.00727
-7.02295
-4.51143
-1.62659
1.4524
4.5421
7.47374
10.1078
12.3432
14.12
15.4174
16.2463
16.6402
16.6448
16.3088
15.6774
14.7889
13.6746
12.3616
10.8775
9.25496
7.53558
5.77194
4.0268
2.36974
0.871164
-0.405835
-1.41603
-2.14554
-2.629
-2.97063
-3.36788
-4.13412
-5.71504
-8.69212
-13.7674
-21.7263
-33.3781
-49.4797
-70.6512
-97.2938
-129.525
-167.136
-209.592
-256.054
-305.45
-356.562
-408.127
-458.945
-507.968
-554.376
-597.615
-637.409
-673.739
-706.8
-736.938
-764.58
-790.164
-814.086
-836.647
-858.032
-878.302
-897.404
-915.191
-931.452
-945.943
-958.415
-968.63
-976.369
-981.42
-983.557
-982.501
-977.877
-969.17
-955.699
-936.609
-910.914
-877.577
-835.635
-784.366
-723.456
-653.162
-574.417
-488.874
-398.848
-307.174
-216.976
-131.388
-53.2549
15.1473
72.3267
117.703
151.629
175.304
190.596
199.79
205.308
209.432
214.057
220.518
229.493
240.997
254.459
268.86
282.918
295.284
304.729
310.297
311.407
307.895
300.001
288.303
273.613
256.849
238.909
220.553
202.316
184.463
166.98
149.624
131.991
113.623
94.1167
73.2223
50.9234
27.4792
3.42544
-20.4659
-43.2647
-63.986
-81.706
-95.6729
-105.399
-110.72
-111.811
-109.162
-103.511
-95.7518
-86.8161
-77.5627
-68.6748
-60.5862
-53.4408
-47.0884
-41.1145
-34.8932
-27.6544
-18.552
-6.72527
8.64931
28.3145
52.8884
82.8104
118.267
159.097
204.671
253.776
304.52
354.283
399.759
437.094
462.134
470.772
459.368
425.183
366.794
284.414
180.069
57.5972
-77.5553
-218.729
-358.599
-489.816
-605.657
-700.613
-770.83
-814.367
-831.235
-823.239
-793.647
-746.745
-687.348
-620.316
-550.138
-480.623
-414.714
-354.424
-300.885
-254.479
-215.025
-181.974
-154.608
-132.183
-114.045
-99.6764
-88.704
-80.862
-75.9344
-73.6876
-73.8097
-75.8674
-79.2879
-83.3695
-87.318
-90.3041
-91.5328
-90.3158
-86.1375
-78.7045
-67.9756
-54.1647
-37.7195
-19.276
0.405774
20.5186
40.2899
59.0602
76.3502
91.909
105.738
118.086
129.417
140.353
151.588
163.801
177.561
193.239
210.948
230.509
251.453
273.062
294.44
314.616
332.652
347.751
359.349
367.179
371.283
371.996
369.878
365.619
359.92
353.376
346.37
339.005
331.073
322.08
311.315
297.959
281.223
260.478
235.384
205.977
172.714
136.459
98.4258
60.0692
22.9503
-11.413
-41.6893
-66.855
-86.2795
-99.766
-107.546
-110.227
-108.713
-104.089
-97.5025
-90.0518
-82.6803
-76.1036
-70.7642
-66.8192
-64.1568
-62.4385
-61.1584
-59.7122
-57.4699
-53.8445
-48.3524
-40.6624
-30.6296
-18.3143
-3.98409
11.9005
28.7155
45.7169
62.0957
77.0406
89.8034
99.7618
106.473
109.712
109.492
106.062
99.8779
91.562
81.8374
71.4617
61.1564
51.5456
43.108
36.1483
30.7888
26.9815
24.5368
23.1641
22.5184
22.2468
22.029
21.6069
20.8018
19.5181
17.7339
15.483
12.8315
9.85289
6.60777
3.12912
-0.583316
-4.56014
-8.85195
-13.514
-18.5889
-24.0913
-29.9963
-36.2346
-42.6947
-49.2314
-55.6796
-61.8709
-67.6505
-72.8914
-77.5054
-81.4474
-84.7145
-87.3401
-89.3832
-90.9155
-92.0087
-92.7229
-93.0982
-93.1509
-92.8745
-92.245
-91.2296
-89.7975
-87.9303
-85.6304
-82.9254
-79.8665
-76.52
-72.952
-69.206
-65.2769
-61.0852
-56.4571
-51.1157
-44.6899
-36.7421
-26.8139
-14.4854
0.561019
18.4826
39.2346
62.5529
87.9657
114.832
142.405
169.899
196.564
221.739
244.885
265.589
283.542
298.494
310.212
318.435
322.85
323.107
318.848
309.772
295.711
276.704
253.055
225.361
194.508
161.615
127.96
94.8686
63.6037
35.2531
10.6413
-9.73046
-25.7073
-37.4672
-45.4738
-50.4043
-53.0617
-54.2834
-54.8564
-55.4474
-56.555
-58.485
-61.3495
-65.0859
-69.4916
-74.2673
-79.0639
-83.5272
-87.3357
-90.2295
-92.0278
-92.6328
-92.0195
-90.2096
-87.229
-83.0494
-77.519
-70.2924
-60.7739
-48.0962
-31.1544
-8.71308
20.4101
57.0956
101.643
153.506
211.11
271.792
331.912
387.138
432.885
464.847
479.562
474.9
450.422
407.528
349.376
280.574
206.692
133.638
67.0132
11.5043
-29.5928
-54.6672
-63.8726
-58.9942
-43.1296
-20.2349
5.39797
29.6636
49.1009
61.2338
64.7639
59.6023
46.7524
28.0706
5.94578
-17.054
-38.5219
-56.4976
-69.6678
-77.4646
-80.0599
-78.2655
-73.3618
-66.8811
-60.3803
-55.229
-52.4417
-52.5696
-55.6609
-61.2902
-68.6454
-76.6577
-84.1544
-90.0126
-93.2957
-93.3554
-89.8913
-82.9621
-72.9534
-60.5079
-46.4307
-31.5826
-16.776
-2.68488
10.2211
21.7128
31.8061
40.7379
48.9179
56.8659
65.1417
74.2779
84.7218
96.7917
110.651
126.301
143.584
162.204
181.755
201.746
221.63
240.834
258.779
274.901
288.663
299.576
307.207
311.197
311.276
307.272
299.126
286.897
270.764
251.025
228.084
202.433
174.637
145.308
115.081
84.5965
54.4725
25.2918
-2.41555
-28.185
-51.6268
-72.4325
-90.3771
-105.318
-117.188
-125.988
-131.777
-134.66
-134.783
-132.329
-127.517
-120.61
-111.92
-101.82
-90.745
-79.1926
-67.7119
-56.8807
-47.2724
-39.4144
-33.7422
-30.5556
-29.9811
-31.9493
-36.1891
-42.2417
-49.495
-57.2355
-64.7115
-71.2025
-76.0866
-78.8977
-79.3672
-77.4438
-73.2914
-67.2632
-59.8572
-51.6568
-43.2654
-35.2423
-28.0468
-21.9988
-17.2585
-13.826
-11.5622
-10.2226
-9.50248
-9.08406
-8.68032
-8.06987
-7.11904
-5.7896
-4.13244
-2.26962
-0.368194
1.38954
2.83521
3.83881
4.32573
4.28456
3.76563
2.87126
1.73969
0.525616
-0.620085
-1.56843
-2.22622
-2.54423
-2.51921
-2.18995
-1.62843
-0.92778
-0.188677
0.493849
1.04159
1.40114
1.54797
1.4865
1.24658
0.877071
0.437844
-0.00888147
-0.406535
-0.710665
-0.893222
-0.944336
-0.871628
-0.697408
-0.454313
-0.180097
0.0876792
0.316398
0.482003
0.571154
0.58178
0.522111
0.408475
0.262265
0.10655
-0.0371776
-0.151703
-0.225921
-0.255643
-0.243365
-0.197146
-0.128835
-0.0519693
0.0203261
0.0771558
0.111153
0.119147
0.102165
0.0648611
0.0145186
-0.0401076
-0.0898106
-0.125457
-0.137705
-0.115735
-0.0450251
0.0955017
0.336384
0.719828
1.30046
2.14405
3.32403
4.91597
6.99088
9.60837
12.8111
16.6217
21.0435
26.0651
31.669
37.8418
44.5859
51.9276
59.9211
68.6452
78.192
88.6494
100.077
112.485
125.81
139.905
154.54
169.411
184.168
198.452
211.933
224.358
235.582
245.596
254.542
262.709
270.525
278.544
287.433
297.963
311.005
327.514
348.487
374.88
407.468
446.637
492.147
542.881
596.667
650.215
699.224
738.696
763.426
768.629
750.609
707.372
639.078
548.251
439.689
320.079
197.353
79.8667
-24.4962
-109.171
-169.601
-203.689
-211.941
-197.311
-164.764
-120.626
-71.8108
-25.024
13.959
40.8552
53.2216
50.5619
34.1966
6.93225
-27.4144
-64.5666
-100.339
-131.126
-154.264
-168.256
-172.816
-168.773
-157.842
-142.317
-124.719
-107.459
-92.554
-81.4165
-74.7521
-72.5513
-74.1751
-78.5104
-84.1674
-89.6911
-93.757
-95.3283
-93.759
-88.8367
-80.7641
-70.0907
-57.6072
-44.2206
-30.8276
-18.2018
-6.90762
2.75082
10.7446
17.2993
22.8448
27.9454
33.2192
39.2582
46.558
55.4632
66.1353
78.5422
92.4696
107.55
123.308
139.204
154.692
169.258
182.462
193.954
203.487
210.908
216.141
219.162
219.966
218.545
214.869
208.884
200.518
189.704
176.416
160.701
142.709
122.721
101.153
78.541
55.5176
32.7637
10.9563
-9.28787
-27.463
-43.2141
-56.3599
-66.8974
-74.9878
-80.9266
-85.1011
-87.9433
-89.8815
-91.2977
-92.495
-93.677
-94.9412
-96.285
-97.6229
-98.8117
-99.6784
-100.05
-99.7777
-98.7579
-96.942
-94.3406
-91.0184
-87.0833
-82.6715
-77.9307
-73.0041
-68.0176
-63.0706
-58.2323
-53.5426
-49.016
-44.6497
-40.4314
-36.3472
-32.3884
-28.5554
-24.8594
-21.3215
-17.9703
-14.8384
-11.9578
-9.35683
-7.05674
-5.06994
-3.3991
-2.03728
-0.968837
-0.170762
0.385604
0.732839
0.905749
0.939816
0.869824
0.728651
0.54624
0.34874
0.157832
-0.00973879
-0.1424
-0.233714
-0.282071
-0.290101
-0.263858
-0.211811
-0.143745
-0.0696605
0.00124497
0.0614028
0.105458
0.130564
0.136387
0.124835
0.0995762
0.0654156
0.0276049
-0.00881771
-0.0395926
-0.0616516
-0.0733454
-0.0744778
-0.0661633
-0.0505429
-0.0304074
-0.0087837
0.0114629
0.0279626
0.0390779
0.0440244
0.0428738
0.03645
0.026144
0.0136789
0.000857922
-0.0106686
-0.0195931
-0.0250771
-0.0268047
-0.0249662
-0.0201789
-0.0133639
-0.00559753
0.00204011
0.00860247
0.0133881
0.0160386
0.0166792
0.0162344
0.0171328
0.0246666
0.0492022
0.109236
0.234931
0.471389
0.880584
1.5408
2.54266
3.98127
5.94495
8.50158
11.6844
15.48
19.8193
24.576
29.5697
34.578
39.3528
43.6415
47.2093
49.8606
51.4564
51.9255
51.2689
49.5559
46.9132
43.5083
39.5297
35.1662
30.5884
25.9344
21.3014
16.7439
12.2778
7.88985
3.55006
-0.775488
-5.11286
-9.47185
-13.8417
-18.191
-22.4722
-26.627
-30.5943
-34.3157
-37.7395
-40.8197
-43.5096
-45.7482
-47.4369
-48.4064
-48.3747
-46.8989
-43.3321
-36.7973
-26.1985
-10.2856
12.213
42.3906
80.9113
127.741
181.915
241.387
303.026
362.768
415.953
457.789
483.916
490.963
477.041
442.075
387.927
318.287
238.336
154.22
72.4077
-0.988788
-60.8469
-103.539
-127.255
-132.108
-120.018
-94.4045
-59.7221
-20.9174
17.1375
50.1581
74.8566
89.2035
92.5253
85.4392
69.6465
47.6222
22.246
-3.57623
-27.2536
-46.7779
-60.8913
-69.1455
-71.8533
-69.9515
-64.8001
-57.9495
-50.9091
-44.9468
-40.9419
-39.3063
-39.9773
-42.4761
-46.0189
-49.6594
-52.4427
-53.5467
-52.3949
-48.7257
-42.6147
-34.4479
-24.856
-14.6191
-4.55795
4.57336
12.1807
17.8974
21.6213
23.5185
23.997
23.6556
23.2161
23.4467
25.0854
28.7703
34.9814
44.0003
55.8862
70.4719
87.3768
106.036
125.741
145.69
165.044
182.978
198.734
211.665
221.265
227.186
229.252
227.446
221.895
212.851
200.665
185.761
168.615
149.747
129.703
109.052
88.3769
68.2635
49.2834
31.9718
16.7997
4.14344
-5.74453
-12.7585
-16.953
-18.5427
-17.8887
-15.4698
-11.8428
-7.59588
-3.29859
0.543806
3.52804
5.37784
5.95413
5.24993
3.37155
0.5094
-3.0972
-7.19599
-11.5537
-15.9797
-20.3388
-24.5521
-28.5865
-32.4371
-36.1042
-39.5721
-42.7912
-45.6695
-48.0739
-49.8406
-50.7951
-50.7758
-49.6606
-47.3886
-43.9767
-39.5265
-34.2207
-28.3103
-22.0926
-15.8835
-9.9881
-4.67261
-0.141784
3.47437
6.12221
7.81308
8.60005
8.54578
7.68722
6.00404
3.39818
-0.309527
-5.36195
-12.0277
-20.5467
-31.0663
-43.5792
-57.873
-73.5024
-89.7916
-105.87
-120.742
-133.376
-142.818
-148.294
-149.306
-145.695
-137.67
-125.798
-110.941
-94.1757
-76.6775
-59.6032
-43.9768
-30.5968
-19.9732
-12.3016
-7.47403
-5.12371
-4.6945
-5.52517
-6.93652
-8.3103
-9.15138
-9.12731
-8.08298
-6.03185
-3.12755
0.377892
4.18234
7.98124
11.5089
14.5687
17.0505
18.9336
20.2778
21.2052
21.8751
22.4582
23.111
23.9557
25.067
26.4658
28.121
29.9584
31.8735
33.7483
35.4678
36.9358
38.087
38.8943
39.3713
39.5695
39.5701
39.473
39.3836
39.3986
39.5942
40.0164
40.6762
41.5497
42.5835
43.703
44.8247
45.8674
46.7618
47.4554
47.9105
48.094
47.9561
47.3994
46.2368
44.1425
40.6019
34.8675
25.9339
12.5413
-6.78305
-33.6399
-69.6325
-116.208
-174.48
-245.057
-327.891
-422.166
-526.249
-637.707
-753.377
-869.503
-981.912
-1086.22
-1178.06
-1253.33
-1308.43
-1340.55
-1347.86
-1329.8
-1287.22
-1222.45
-1139.32
-1042.96
-939.444
-835.294
-736.846
-649.562
-577.374
-522.168
-483.508
-458.661
-442.958
-430.456
-414.823
-390.315
-352.702
-299.987
-232.815
-154.485
-70.5636
11.8396
85.0434
141.856
176.577
185.797
168.881
128.073
68.2246
-3.8205
-80.0775
-152.393
-213.407
-257.372
-280.739
-282.447
-263.887
-228.573
-181.58
-128.831
-76.3322
-29.4603
7.61404
32.3087
43.7843
42.8705
31.7939
13.7606
-7.54284
-28.4573
-45.8049
-57.2359
-61.4359
-58.1812
-48.2497
-33.2143
-15.1562
3.65854
21.0941
35.4129
45.4689
50.8069
51.6678
48.904
43.8274
38.0117
33.0793
30.4999
31.4229
36.5638
46.1509
59.9352
77.2556
97.1476
118.477
140.082
160.906
180.106
197.124
211.723
223.971
234.195
242.889
250.612
257.859
264.947
271.913
278.451
283.892
287.24
287.261
282.628
272.084
254.632
229.703
197.287
158.004
113.109
64.4057
14.1049
-35.382
-81.6741
-122.654
-156.676
-182.715
-200.452
-210.276
-213.212
-210.773
-204.777
-197.133
-189.63
-183.758
-180.571
-180.61
-183.891
-189.958
-197.975
-206.865
-215.457
-222.627
-227.431
-229.187
-227.532
-222.431
-214.14
-203.155
-190.126
-175.773
-160.807
-145.858
-131.429
-117.87
-105.376
-94.0002
-83.6817
-74.2853
-65.6375
-57.5626
-49.9116
-42.5824
-35.5297
-28.7662
-22.3548
-16.3953
-11.0064
-6.30673
-2.39651
0.657524
2.83278
4.15589
4.7019
4.58817
3.96364
2.99521
1.8527
0.694212
-0.346545
-1.16963
-1.7142
-1.95952
-1.92168
-1.64702
-1.2029
-0.667431
-0.119035
0.37266
0.753926
0.991334
1.07326
1.00865
0.823438
0.555385
0.248064
-0.055135
-0.316233
-0.506526
-0.60872
-0.617257
-0.537007
-0.380744
-0.165974
0.0882926
0.364276
0.647263
0.926353
1.19414
1.44553
1.67609
1.88041
2.05076
2.17661
2.24498
2.24171
2.15343
1.96989
1.68624
1.30482
0.836248
0.299459
-0.27914
-0.867429
-1.42987
-1.93006
-2.33309
-2.60752
-2.72657
-2.66866
-2.41705
-1.95902
-1.2846
-0.385234
0.747339
2.12198
3.74858
5.63811
7.80257
10.2549
13.0087
16.0789
19.4813
23.2324
27.348
31.8405
36.7146
41.9623
47.5565
53.4458
59.5509
65.7638
71.9505
77.9581
83.625
88.793
93.3201
97.0923
100.031
102.098
103.294
103.649
103.219
102.068
100.258
97.8413
94.8473
91.2861
87.1483
82.4135
77.0612
71.084
64.5
57.3633
49.7698
41.8566
33.7962
25.7846
18.0246
10.7077
3.99527
-1.9982
-7.2178
-11.6772
-15.4627
-18.7336
-21.7178
-24.7013
-28.0119
-31.99
-36.9485
-43.1159
-50.5696
-59.1628
-68.4602
-77.6975
-85.7822
-91.3495
-92.8795
-88.872
-78.0621
-59.6511
-33.5146
-0.352583
38.2539
79.9018
121.547
159.795
191.266
212.997
222.809
219.604
203.539
176.048
139.708
97.9725
54.787
14.156
-20.2987
-45.7284
-60.3515
-63.6209
-56.2482
-40.0915
-17.9287
6.84877
30.5792
49.6707
60.9034
61.6694
50.1381
25.3439
-12.7998
-63.5505
-125.44
-196.419
-274.033
-355.612
-438.476
-520.124
-598.419
-671.727
-739.016
-799.896
-854.579
-903.774
-948.503
-989.874
-1028.82
-1065.84
-1100.81
-1132.84
-1160.23
-1180.63
-1191.2
-1188.96
-1171.18
-1135.77
-1081.66
-1009.03
-919.504
-816.064
-702.878
-584.937
-467.596
-356.055
-254.853
-167.442
-95.8761
-40.6784
-0.876382
25.795
42.556
53.1595
61.4379
70.8757
84.2566
103.42
129.143
161.159
198.28
238.621
279.868
319.575
355.437
385.518
408.415
423.344
430.135
429.167
421.231
407.358
388.631
366.001
340.139
311.338
279.479
244.073
204.377
159.56
108.922
52.1152
-10.65
-78.4467
-149.553
-221.467
-291.035
-354.672
-408.674
-449.589
-474.599
-481.877
-470.864
-442.441
-398.943
-344.023
-282.365
-219.267
-160.147
-110.024
-73.0343
-52.0443
-48.397
-61.8267
-90.5435
-131.472
-180.605
-233.438
-285.402
-332.287
-370.569
-397.646
-411.959
-413.001
-401.232
-377.929
-344.99
-304.721
-259.633
-212.254
-164.977
-119.928
-78.8872
-43.2183
-13.8439
8.76379
24.5656
33.917
37.511
36.304
31.4298
24.1058
15.5389
6.8374
-1.06389
-7.45902
-11.9032
-14.2191
-14.4786
-12.9611
-10.095
-6.38769
-2.35056
1.57155
5.06037
7.9665
10.3288
12.3685
14.4581
17.0688
20.7022
25.8167
32.7561
41.6931
52.592
65.1998
79.063
93.5717
108.022
121.691
133.912
144.146
152.033
157.423
160.383
161.184
160.258
158.145
155.434
152.699
150.44
149.037
148.724
149.574
151.504
154.298
157.639
161.147
164.426
167.104
168.861
169.462
168.762
166.71
163.335
158.728
153.015
146.333
138.807
130.536
121.579
111.966
101.695
90.7595
79.1589
66.9253
54.1397
40.9458
27.5548
14.2403
1.32223
-10.8586
-21.9732
-31.7413
-39.9655
-46.56
-51.5663
-55.1541
-57.6045
-59.2776
-60.5669
-61.8484
-63.4304
-65.5127
-68.1599
-71.295
-74.7105
-78.0994
-81.0977
-83.335
-84.4856
-84.3138
-82.7094
-79.7092
-75.5017
-70.4184
-64.9087
-59.5056
-54.7816
-51.3016
-49.574
-50.0038
-52.8497
-58.1851
-65.8646
-75.4933
-86.4003
-97.6173
-107.868
-115.581
-118.933
-115.952
-104.68
-83.4039
-50.9353
-6.9077
47.9602
111.693
181.034
251.594
318.192
375.35
417.891
441.558
443.559
422.974
380.933
320.558
246.656
165.21
82.7272
5.53952
-60.867
-112.398
-146.717
-163.386
-163.788
-150.831
-128.508
-101.355
-73.8883
-50.0982
-33.0383
-24.5695
-25.2678
-34.4934
-50.6006
-71.2463
-93.7519
-115.468
-134.098
-147.944
-156.048
-158.24
-155.067
-147.656
-137.511
-126.291
-115.585
-106.726
-100.652
-97.8273
-98.2326
-101.412
-106.565
-112.675
-118.644
-123.427
-126.143
-126.163
-123.147
-117.061
-108.148
-96.8736
-83.8579
-69.7942
-55.3724
-41.2103
-27.8017
-15.4835
-4.42487
5.3642
14.0071
21.7222
28.7769
35.4404
41.9405
48.4292
54.9599
61.4794
67.833
73.7832
79.0365
83.2765
86.1971
87.5312
87.0734
84.6921
80.3323
74.0098
65.7999
55.8251
44.2435
31.2437
17.0459
1.90939
-13.8536
-29.8621
-45.6505
-60.6573
-74.2208
-85.5844
-93.9135
-98.3224
-97.9118
-91.8128
-79.2351
-59.5143
-32.156
3.12865
46.397
97.4601
155.879
220.969
291.811
367.269
446.008
526.516
607.133
686.083
761.519
831.582
894.466
948.497
992.215
1024.45
1044.38
1051.58
1046.04
1028.13
998.585
958.413
908.862
851.334
787.33
718.404
646.128
572.071
497.776
424.746
354.415
288.115
227.031
172.157
124.246
83.7749
50.9098
25.5037
7.10706
-4.9982
-11.7458
-14.2181
-13.5715
-10.9606
-7.46821
-4.04577
-1.4696
-0.313553
-0.93935
-3.50283
-7.97366
-14.1652
-21.7708
-30.4034
-39.6343
-49.0301
-58.1843
-66.7428
-74.4237
-81.028
-86.4453
-90.6516
-93.7013
-95.7144
-96.8597
-97.3353
-97.3484
-97.0959
-96.7466
-96.4279
-96.2169
-96.1368
-96.1598
-96.2144
-96.1973
-95.9888
-95.4685
-94.5308
-93.0976
-91.1264
-88.6142
-85.5949
-82.1326
-78.3105
-74.2181
-69.9391
-65.5402
-61.0653
-56.5324
-51.9377
-47.2624
-42.4837
-37.5866
-32.5757
-27.4841
-22.3777
-17.3549
-12.5406
-8.07509
-4.10015
-0.743043
1.89854
3.76884
4.8619
5.22394
4.94974
4.17364
3.05625
1.7686
0.475596
-0.6791
-1.58518
-2.17349
-2.41883
-2.33783
-1.98242
-1.42996
-0.77155
-0.0998976
0.50174
0.968384
1.25916
1.35981
1.28199
1.05996
0.745238
0.400275
0.0917906
-0.115433
-0.163779
-0.00666995
0.389145
1.04298
1.96127
3.14013
4.56933
6.23718
8.13586
10.2664
12.6423
15.2904
18.249
21.562
25.2702
29.4005
33.9547
38.9006
44.166
49.6385
55.1713
60.5942
65.7304
70.4179
74.5333
78.0199
80.9195
83.4076
85.8317
88.7491
92.9539
99.4814
109.572
124.578
145.806
174.298
210.567
254.339
304.345
358.212
412.522
463.024
505.023
533.892
545.629
537.406
507.989
457.999
389.934
307.976
217.577
124.894
36.1465
-43.0271
-108.131
-156.223
-186.128
-198.451
-195.375
-180.31
-157.413
-131.078
-105.424
-83.8753
-68.848
-61.593
-62.1844
-69.6502
-82.2126
-97.5992
-113.38
-127.289
-137.483
-142.735
-142.513
-136.979
-126.892
-113.453
-98.1093
-82.3487
-67.5116
-54.6406
-44.3836
-36.9564
-32.1642
-29.4709
-28.1051
-27.1835
-25.8355
-23.3127
-19.0712
-12.82
-4.5322
5.57689
17.0997
29.5032
42.2039
54.6391
66.327
76.9091
86.1719
94.0482
100.601
105.991
110.441
114.195
117.477
120.461
123.251
125.866
128.243
130.25
131.702
132.389
132.102
130.655
127.903
123.752
118.159
111.123
102.681
92.89
81.8252
69.5822
56.2861
42.1111
27.3028
12.2009
-2.74555
-16.977
-29.8404
-40.6271
-48.6312
-53.2233
-53.9305
-50.5142
-43.0322
-31.8757
-17.7736
-1.75855
14.9033
30.8143
44.5682
54.8816
60.7189
61.3964
56.653
46.68
32.1063
13.9412
-6.51848
-27.8057
-48.4125
-66.9184
-82.1047
-93.0458
-99.1708
-100.291
-96.5963
-88.6151
-77.1558
-63.2232
-47.9264
-32.383
-17.6288
-4.54072
6.22172
14.251
19.4018
21.7761
21.6879
19.6101
16.1127
11.7974
7.23617
2.92042
-0.776467
-3.61911
-5.51322
-6.49313
-6.69686
-6.3332
-5.64526
-4.87528
-4.23434
-3.88013
-3.90398
-4.32792
-5.11044
-6.15964
-7.35089
-8.54665
-9.61569
-10.4493
-10.9728
-11.1521
-10.9934
-10.5389
-9.85752
-9.03326
-8.15307
-7.2949
-6.51809
-5.8568
-5.31697
-4.87679
-4.49049
-4.0944
-3.61456
-2.97474
-2.10367
-0.940874
0.559492
2.42695
4.67477
7.30138
10.2924
13.6227
17.2581
21.1566
25.2686
29.5376
33.9002
38.2863
42.6206
46.8244
50.8176
54.5221
57.864
60.7769
63.2032
65.0944
66.4101
67.1148
67.1744
66.5513
65.2017
63.0733
60.1063
56.2374
51.4047
45.5556
38.6531
30.6841
21.6648
11.647
0.722606
-10.9722
-23.2546
-35.8937
-48.6137
-61.0994
-73.0072
-83.9814
-93.6743
-101.771
-108.012
-112.221
-114.323
-114.358
-112.487
-108.993
-104.263
-98.7774
-93.081
-87.76
-83.4153
-80.6385
-79.9909
-81.9845
-87.0657
-95.5976
-107.841
-123.932
-143.855
-167.413
-194.199
-223.57
-254.637
-286.261
-317.083
-345.568
-370.087
-389.013
-400.844
-404.331
-398.603
-383.28
-358.552
-325.211
-284.637
-238.725
-189.76
-140.245
-92.7085
-49.4881
-12.5364
16.7535
37.6781
50.2993
55.461
54.7395
50.3286
44.8623
41.1816
42.059
49.9019
66.4605
92.5732
127.98
171.24
219.767
270.004
317.722
358.428
387.834
402.336
399.447
378.127
338.954
284.127
217.279
143.128
67.0043
-5.6837
-69.9914
-121.912
-158.735
-179.252
-183.785
-174.052
-152.887
-123.85
-90.7962
-57.427
-26.9015
-1.52798
17.43
29.8231
36.5661
39.4836
41.0764
44.2379
51.9477
66.9702
91.5778
127.317
174.829
233.744
302.642
379.115
459.898
541.105
618.513
687.901
745.391
787.759
812.678
818.87
806.156
775.407
728.412
667.693
596.289
517.529
434.831
351.519
270.676
195.03
126.863
67.9515
19.5177
-17.7909
-43.9092
-59.3357
-65.0865
-62.6195
-53.7256
-40.3929
-24.6477
-8.38594
6.79127
19.7201
29.7766
36.9225
41.6846
45.0621
48.3678
53.0181
60.2968
71.1221
85.8526
104.163
125.013
146.724
167.154
183.946
194.83
197.918
191.957
176.504
152
119.726
81.6588
40.2431
-1.8852
-42.1875
-78.4837
-109.156
-133.272
-150.617
-161.639
-167.317
-168.981
-168.104
-166.093
-164.112
-162.944
-162.918
-163.886
-165.266
-166.139
-165.374
-161.783
-154.286
-142.058
-124.654
-102.099
-74.9205
-44.1434
-11.2214
22.0728
53.7953
82.0049
104.943
121.204
129.873
130.626
123.758
110.165
91.2499
68.7824
44.7232
21.0263
-0.551302
-18.6142
-32.2475
-41.0756
-45.254
-45.3951
-42.4392
-37.4881
-31.6273
-25.7633
-20.5012
-16.0823
-12.3918
-9.03504
-5.47085
-1.17778
4.1748
10.583
17.6199
24.4225
29.7619
32.1892
30.2389
22.6588
8.63049
-12.0555
-38.8975
-70.6739
-105.53
-141.151
-174.999
-204.575
-227.68
-242.638
-248.449
-244.864
-232.383
-212.167
-185.899
-155.598
-123.419
-91.4566
-61.5778
-35.2849
-13.6306
2.81868
13.9725
20.1656
22.0788
20.6419
16.9349
12.0943
7.23574
3.3943
1.48237
2.26256
6.33036
14.1021
25.8049
41.4684
60.9181
83.775
109.465
137.242
166.223
195.448
223.939
250.776
275.167
296.511
314.441
328.848
339.875
347.885
353.406
357.067
359.517
361.356
363.074
365.012
367.348
370.102
373.164
376.335
379.371
382.023
384.065
385.306
385.585
384.747
382.61
378.936
373.398
365.582
354.995
341.108
323.424
301.555
275.306
244.751
210.283
172.636
132.871
92.3144
52.4766
14.9319
-18.8061
-47.4125
-69.8643
-85.5276
-94.2111
-96.1789
-92.123
-83.0972
-70.4206
-55.5601
-40.0035
-25.135
-12.1254
-1.84275
5.2089
8.92183
9.58703
7.867
4.73902
1.40874
-0.805646
-0.615299
3.07917
11.0234
23.4604
40.0203
59.673
80.7619
101.132
118.349
129.995
134.001
128.988
114.535
91.3487
61.2814
27.1793
-7.42745
-38.7575
-63.2715
-78.1534
-81.7037
-73.5852
-54.881
-27.9576
3.84636
36.657
66.5642
90.1094
104.694
108.859
102.396
86.2907
62.5176
33.7142
2.79976
-27.4119
-54.55
-76.9333
-93.7004
-104.817
-110.97
-113.378
-113.549
-113.022
-113.139
-114.867
-118.69
-124.586
-132.073
-140.315
-148.266
-154.825
-158.98
-159.922
-157.124
-150.372
-139.759
-125.655
-108.65
-89.4991
-69.0645
-48.2728
-28.0762
-9.42068
6.78537
19.7114
28.655
33.1029
32.7962
27.7903
18.4961
5.69123
-9.50708
-25.7117
-41.3733
-54.9159
-64.8862
-70.0969
-69.7466
-63.5017
-51.5285
-34.4737
-13.3967
10.3365
35.1825
59.5572
81.9651
101.107
115.963
125.843
130.409
129.68
124.009
114.054
100.734
85.1741
68.6437
52.4784
37.9946
26.3923
18.6538
15.4448
17.0267
23.1943
33.248
46.0123
59.9047
73.0553
83.4689
89.2165
88.6341
80.5071
64.2155
39.8209
8.08033
-29.6157
-71.3775
-115.006
-158.213
-198.856
-235.136
-265.762
-290.041
-307.895
-319.807
-326.694
-329.743
-330.223
-329.297
-327.867
-326.46
-325.174
-323.689
-321.325
-317.156
-310.147
-299.316
-283.869
-263.33
-237.612
-207.043
-172.336
-134.502
-94.7376
-54.2869
-14.3124
24.2114
60.5639
94.297
125.206
153.26
178.513
201.003
220.674
237.322
250.59
260.007
265.062
265.312
260.486
250.582
235.923
217.162
195.24
171.286
146.48
121.91
98.4222
76.5245
56.3257
37.5475
19.5943
1.67582
-17.0387
-37.2585
-59.4275
-83.6199
-109.491
-136.289
-162.927
-188.104
-210.455
-228.712
-241.854
-249.226
-250.608
-246.234
-236.754
-223.148
-206.596
-188.344
-169.558
-151.206
-133.979
-118.251
-104.09
-91.3186
-79.5943
-68.5119
-57.7026
-46.9154
-36.0703
-25.2755
-14.8106
-5.07908
3.45956
10.3665
15.296
18.0535
18.6307
17.2133
14.1624
9.97283
5.21492
0.470408
-3.72974
-6.95585
-8.91249
-9.45038
-8.55769
-6.33443
-2.95594
1.36683
6.4228
12.026
18.0265
24.3056
30.758
37.264
43.6596
49.7104
55.0975
59.4198
62.2168
63.0091
61.3557
56.9189
49.5285
39.2363
26.3513
11.4481
-4.65575
-20.953
-36.3283
-49.6593
-59.9269
-66.3217
-68.3331
-65.8094
-58.9807
-48.4398
-35.0832
-20.0179
-4.44315
10.4781
23.7475
34.6464
42.8278
48.3788
51.845
54.2146
56.8558
61.407
69.6213
83.172
103.435
131.265
166.799
209.311
257.153
307.799
358.007
404.095
442.302
469.197
482.085
479.355
460.718
427.297
381.558
327.07
268.139
209.347
155.059
108.965
73.7005
50.6041
39.6364
39.4606
47.6747
61.1593
76.491
90.3666
99.9827
103.324
99.3301
87.9226
69.908
46.7727
20.411
-7.17068
-34.1307
-59.0132
-80.8886
-99.4033
-114.74
-127.506
-138.571
-148.89
-159.323
-170.501
-182.729
-195.949
-209.763
-223.5
-236.32
-247.328
-255.699
-260.772
-262.129
-259.629
-253.412
-243.867
-231.577
-217.241
-201.603
-185.373
-169.167
-153.464
-138.582
-124.668
-111.711
-99.5521
-87.9195
-76.4507
-64.7265
-52.3049
-38.7572
-23.7089
-6.88049
11.8708
32.5159
54.829
78.3795
102.545
126.547
149.512
170.547
188.83
203.695
214.709
221.721
224.873
224.574
221.433
216.154
209.419
201.766
193.493
184.595
174.761
163.424
149.862
133.336
113.246
89.2712
61.4808
30.3893
-3.0496
-37.5134
-71.4352
-103.164
-131.137
-154.041
-170.936
-181.32
-185.131
-182.682
-174.544
-161.397
-143.881
-122.472
-97.4151
-68.7311
-36.2859
0.0751268
40.3686
84.3198
131.253
180.05
229.19
276.867
321.149
360.172
392.303
416.277
431.266
436.897
433.221
420.646
399.871
371.815
337.574
298.381
255.595
210.68
165.18
120.679
78.7328
40.7918
8.09994
-18.3994
-38.1458
-51.0174
-57.3473
-57.8977
-53.7902
-46.3995
-37.2228
-27.7379
-19.2694
-12.8751
-9.26757
-8.77645
-11.3549
-16.6261
-23.9619
-32.5818
-41.6582
-50.4156
-58.2114
-64.5907
-69.3115
-72.3402
-73.8213
-74.0297
-73.3125
-72.0308
-70.5077
-68.9891
-67.6215
-66.4454
-65.4044
-64.366
-63.1501
-61.5603
-59.4141
-56.5689
-52.9415
-48.5194
-43.3647
-37.6093
-31.4444
-25.1036
-18.8434
-12.9211
-7.57322
-2.99633
0.66874
3.34688
5.0328
5.78857
5.73516
5.03879
3.89387
2.50408
1.06383
-0.258154
-1.33152
-2.07218
-2.44479
-2.46017
-2.16793
-1.64574
-0.986162
-0.282671
0.384072
0.958305
1.41854
1.78315
2.1113
2.49861
3.06739
3.952
5.28037
7.1533
9.62411
12.6807
16.233
20.1081
24.0541
27.7548
30.8531
32.9835
33.809
33.0598
30.5697
26.3044
20.379
13.0605
4.7543
-4.02485
-12.6959
-20.6637
-27.3749
-32.3716
-35.3358
-36.1206
-34.7634
-31.4797
-26.6403
-20.7312
-14.3045
-7.92393
-2.1118
2.69734
6.19115
8.19966
8.70017
7.80813
5.75756
2.87665
-0.434725
-3.71826
-6.45597
-8.05312
-7.81035
-4.89753
1.65204
12.9058
29.937
53.6645
84.6388
122.803
167.278
216.223
266.823
315.431
357.875
389.894
407.663
408.309
390.362
354.054
301.406
236.096
163.115
88.2379
17.4007
-43.9474
-91.4296
-122.191
-135.153
-131.063
-112.312
-82.592
-46.4046
-8.51843
26.5731
55.1215
74.4705
83.2485
81.3948
70.0282
51.1869
27.4795
1.69828
-23.5545
-46.1817
-64.8091
-78.8854
-88.6568
-95.0262
-99.322
-103.006
-107.36
-113.193
-120.587
-128.729
-135.834
-139.16
-135.143
-119.62
-88.13
-36.294
39.7754
143.046
275.161
436.082
623.822
834.285
1061.25
1296.49
1530.09
1750.91
1947.24
2107.59
2221.57
2280.82
2279.9
2216.95
2094.14
1917.75
1697.86
1447.67
1182.41
918.152
670.388
452.774
276.015
147.088
68.8498
40.0462
55.7129
107.879
186.483
280.395
378.424
470.23
547.07
602.323
631.795
633.797
609.023
560.256
491.952
409.73
319.829
228.555
141.776
64.4896
0.489242
-47.8358
-79.5743
-95.2317
-96.5494
-86.229
-67.5911
-44.2071
-19.5396
3.3718
22.1537
35.2497
41.9734
42.4647
37.5643
28.627
17.3009
5.29935
-5.80704
-14.7579
-20.7147
-23.3092
-22.6315
-19.1642
-13.6769
-7.09836
-0.383975
5.60516
10.1979
12.9745
13.7904
12.7634
10.2293
6.67574
2.66426
-1.24856
-4.58103
-6.9798
-8.25212
-8.37553
-7.48616
-5.84964
-3.81973
-1.79086
-0.150519
0.763516
0.69694
-0.498834
-2.85707
-6.2985
-10.645
-15.6415
-20.9844
-26.3506
-31.4279
-35.9409
-39.672
-42.4761
-44.2881
-45.1225
-45.0671
-44.27
-42.9227
-41.2401
-39.44
-37.7238
-36.2591
-35.1682
-34.5199
-34.3283
-34.5553
-35.1188
-35.904
-36.7765
-37.5967
-38.234
-38.5775
-38.546
-38.0923
-37.205
-35.9055
-34.2423
-32.2831
-30.1054
-27.7868
-25.3966
-22.9891
-20.5991
-18.2409
-15.9093
-13.5844
-11.238
-8.84103
-6.3718
-3.82213
-1.20142
1.46295
4.12926
6.74878
9.27593
11.6794
13.9522
16.1187
18.2362
20.3912
22.689
25.2382
28.1322
31.4296
35.1377
39.2001
43.4928
47.8286
51.9702
55.6516
58.6041
60.5856
61.4073
60.9571
59.2138
56.2529
52.2403
47.4186
42.0836
36.5573
31.1586
26.175
21.837
18.298
15.6193
13.7619
12.5857
11.8555
11.2555
10.4108
8.91586
6.3693
2.4123
-3.23095
-10.715
-20.0408
-31.0345
-43.3398
-56.4281
-69.6265
-82.1626
-93.2245
-102.028
-107.888
-110.284
-108.917
-103.742
-94.9852
-83.1288
-68.8787
-53.1052
-36.7709
-20.848
-6.23395
6.3309
16.3388
23.582
28.2116
30.7847
32.294
34.1696
38.2351
46.601
61.4801
84.9238
118.494
162.912
217.733
281.128
349.823
419.238
483.85
537.729
575.208
591.578
583.713
550.536
493.246
415.269
321.942
219.959
116.661
19.2608
-65.9064
-133.998
-182.088
-209.348
-216.982
-207.929
-186.391
-157.251
-125.465
-95.4947
-70.8557
-53.8202
-45.2985
-44.8974
-51.1316
-61.747
-74.1059
-85.5799
-93.9004
-97.4291
-95.3213
-87.5726
-74.9539
-58.8529
-41.0505
-23.4635
-7.89002
4.21206
11.8894
14.7833
13.1406
7.7497
-0.184641
-9.2088
-17.8061
-24.5775
-28.3958
-28.5166
-24.6367
-16.8949
-5.82162
7.75472
22.8291
38.3531
53.3625
67.0848
79.0152
88.954
97.0042
103.532
109.099
114.37
120.026
126.667
134.74
144.493
155.949
168.913
183.006
197.714
212.452
226.626
239.691
251.201
260.828
268.38
273.779
277.04
278.229
277.416
274.64
269.873
263.01
253.876
242.253
227.932
210.777
190.785
168.151
143.3
116.902
89.8433
63.1749
38.0219
15.4819
-3.48453
-18.1535
-28.115
-33.3162
-34.0671
-31.0045
-25.0227
-17.1762
-8.56985
-0.247508
6.90655
12.2428
15.3911
16.2709
15.0692
12.1898
8.1827
3.66245
-0.773646
-4.61905
-7.51454
-9.28249
-9.93593
-9.66259
-8.78688
-7.71573
-6.87568
-6.64987
-7.32328
-9.04333
-11.8006
-15.4316
-19.6425
-24.0503
-28.2336
-31.789
-34.3813
-35.7851
-35.9097
-34.8066
-32.6584
-29.7522
-26.4404
-23.0965
-20.0691
-17.6425
-16.0072
-15.243
-15.3169
-16.0948
-17.3644
-18.8658
-20.3253
-21.4887
-22.1485
-22.1644
-21.473
-20.0886
-18.0937
-15.6244
-12.8493
-9.94877
-7.09406
-4.43082
-2.06714
-0.0674666
1.54771
2.79723
3.73083
4.41843
4.93875
5.36858
5.77399
6.20416
6.68826
7.23523
7.83618
8.46862
9.10181
9.70242
10.2397
10.6898
11.0382
11.281
11.4242
11.4814
11.4708
11.4106
11.3156
11.1925
11.0375
10.8341
10.552
10.1475
9.56419
8.73379
7.57827
6.01229
3.9474
1.29835
-2.00765
-6.01899
-10.7453
-16.1428
-22.1007
-28.4322
-34.8733
-41.0904
-46.6993
-51.2942
-54.4853
-55.9399
-55.4234
-52.8332
-48.2208
-41.7992
-33.9318
-25.1048
-15.8849
-6.86698
1.38124
8.37215
13.7418
17.2796
18.94
18.8369
17.2205
14.441
10.904
7.02352
3.17749
-0.327476
-3.27948
-5.57034
-7.19033
-8.21048
-8.75629
-8.97736
-9.01799
-8.99295
-8.97192
-8.97386
-8.97136
-8.90311
-8.69163
-8.26276
-7.5635
-6.57525
-5.32051
-3.86237
-2.29699
-0.739987
0.692112
1.9049
2.85396
3.57839
4.24045
5.16938
6.90343
10.2188
16.1295
25.8396
40.6339
61.7011
89.9014
125.507
167.963
215.716
266.177
315.831
360.525
395.893
417.877
423.266
410.166
378.338
329.329
266.383
194.134
118.115
44.1563
-22.2508
-76.544
-115.552
-137.781
-143.485
-134.54
-114.122
-86.2622
-55.3289
-25.5077
-0.344187
17.6013
26.9518
27.5537
20.3669
7.23092
-9.45319
-27.0782
-43.1771
-55.7174
-63.3134
-65.3367
-61.9209
-53.8712
-42.4976
-29.401
-16.2425
-4.52804
4.56846
10.3227
12.5105
11.3907
7.62924
2.17985
-3.85981
-9.39579
-13.4706
-15.3659
-14.6656
-11.2751
-5.39978
2.51203
11.8493
21.9304
32.095
41.7828
50.5926
58.3156
64.9411
70.6379
75.7137
80.5614
85.5981
91.2051
97.6762
105.179
113.734
123.211
133.348
143.779
154.073
163.786
172.498
179.857
185.596
189.55
191.646
191.89
190.334
187.048
182.091
175.491
167.243
157.315
145.682
132.356
117.431
101.117
83.7629
65.8576
48.0107
30.91
15.2617
1.72093
-9.17868
-17.0853
-21.8715
-23.6519
-22.7739
-19.7815
-15.3577
-10.2522
-5.20274
-0.861802
2.26497
3.86051
3.81475
2.21869
-0.663621
-4.44046
-8.6487
-12.8134
-16.5036
-19.378
-21.2156
-21.93
-21.5656
-20.2795
-18.3114
-15.9472
-13.4805
-11.1781
-9.2517
-7.83957
-6.99922
-6.71011
-6.88531
-7.3896
-8.06088
-8.73208
-9.25077
-9.49464
-9.38142
-8.87309
-7.97454
-6.72782
-5.20304
-3.48761
-1.67509
0.145114
1.89622
3.52012
4.98076
6.2648
7.37995
8.35131
9.21638
10.0194
10.8052
11.6143
12.4775
13.4129
14.4231
15.4944
16.5973
17.6877
18.7098
19.5999
20.2909
20.7172
20.8196
20.5506
19.878
18.7885
17.2896
15.4099
13.1978
10.7187
8.05077
5.2793
2.49095
-0.232375
-2.81903
-5.21219
-7.37285
-9.28118
-10.936
-12.3526
-13.5589
-14.5913
-15.4888
-16.2886
-17.0211
-17.7071
-18.3551
-18.9613
-19.5109
-19.9799
-20.3392
-20.5582
-20.6088
-20.4688
-20.1238
-19.5689
-18.8072
-17.8481
-16.7034
-15.3823
-13.886
-12.2033
-10.3073
-8.15553
-5.69317
-2.86009
0.399399
4.12505
8.32909
12.9865
18.0286
23.3414
28.7693
34.123
39.1928
43.7636
47.6312
50.6179
52.5857
53.4453
53.1614
51.7531
49.29
45.8849
41.6831
36.8509
31.5631
25.991
20.2923
14.6029
9.0323
3.66061
-1.46009
-6.30294
-10.8613
-15.1431
-19.1643
-22.9438
-26.4988
-29.8415
-32.978
-35.907
-38.6193
-41.0958
-43.2999
-45.1645
-46.5668
-47.293
-46.9927
-45.1304
-40.9467
-33.4483
-21.445
-3.65287
21.1319
53.7958
94.6372
143.108
197.627
255.51
313.075
365.914
409.329
438.874
450.928
443.209
415.157
368.11
305.241
231.27
151.965
73.5229
1.88767
-57.8815
-102.129
-128.936
-138.242
-131.736
-112.557
-84.8422
-53.1848
-22.0822
4.56484
23.8428
34.0663
34.8532
27.0368
12.4415
-6.44087
-26.8239
-45.9998
-61.6663
-72.1728
-76.6611
-75.096
-68.1901
-57.2434
-43.9254
-30.0317
-17.2471
-6.94433
-0.0403977
3.07862
2.5596
-0.981344
-6.57475
-13.0464
-19.1774
-23.8545
-26.193
-25.6208
-21.9153
-15.1957
-5.87473
5.41997
17.9413
30.9232
43.6726
55.6438
66.4874
76.0713
84.4738
91.9514
98.8887
105.737
112.95
120.922
129.94
140.151
151.542
163.948
177.066
190.49
203.747
216.345
227.804
237.695
245.655
251.404
254.744
255.552
253.771
249.395
242.466
233.062
221.3
207.337
191.382
173.699
154.619
134.536
113.914
93.267
73.1454
54.1074
36.6861
21.3536
8.48529
-1.67077
-9.01536
-13.6081
-15.6631
-15.5315
-13.67
-10.6013
-6.86853
-2.98909
0.58654
3.50781
5.54512
6.59741
6.68638
5.93866
4.55888
2.79718
0.915247
-0.845317
-2.28897
-3.28413
-3.77177
-3.76461
-3.33773
-2.61276
-1.73779
-0.865984
-0.135491
0.347028
0.517591
0.359882
-0.0960659
-0.780825
-1.59686
-2.43244
-3.17624
-3.73077
-4.02319
-4.01223
-3.69085
-3.0847
-2.24678
-1.24962
-0.175821
0.891346
1.8764
2.71812
3.37355
3.81942
4.05126
4.08047
3.93013
3.62988
3.2105
2.69871
2.11277
1.45931
0.731941
-0.0880969
-1.02919
-2.12479
-3.40755
-4.90294
-6.62332
-8.56321
-10.6966
-12.9769
-15.3392
-17.7049
-19.9883
-22.1041
-23.9744
-25.5355
-26.7428
-27.5728
-28.0241
-28.1149
-27.879
-27.361
-26.6106
-25.6773
-24.606
-23.4344
-22.1915
-20.8978
-19.5667
-18.2067
-16.824
-15.4244
-14.0156
-12.6078
-11.2139
-9.84924
-8.52976
-7.27083
-6.08532
-4.98208
-3.96471
-3.03077
-2.17144
-1.37151
-0.609616
0.14141
0.914141
1.74608
2.67903
3.75797
5.02945
6.53904
8.32798
10.429
12.8615
15.6275
18.7068
22.0545
25.5997
29.2458
32.8737
36.3465
39.5165
42.2335
44.3549
45.7552
46.3355
46.0318
44.8207
42.7222
39.7996
36.1546
31.9212
27.2547
22.3207
17.2832
12.2923
7.47528
2.92883
-1.28489
-5.13898
-8.63929
-11.8191
-14.7313
-17.4403
-20.0122
-22.5074
-24.9739
-27.4433
-29.9304
-32.4342
-34.9413
-37.4289
-39.8645
-42.1979
-44.3432
-46.1459
-47.3376
-47.481
-45.9178
-41.7347
-33.7703
-20.6809
-1.08
26.2489
62.0857
106.492
158.563
216.285
276.52
335.188
387.603
428.967
454.935
462.181
448.882
415.033
362.551
295.139
217.926
136.927
58.3957
-11.8459
-69.0159
-109.843
-132.844
-138.385
-128.522
-106.662
-77.0853
-44.4056
-13.027
13.3269
31.9665
41.4381
41.5613
33.313
18.5847
-0.14495
-20.1757
-38.9411
-54.3106
-64.8083
-69.728
-69.1425
-63.8144
-55.0296
-44.3812
-33.5343
-24.0019
-16.9598
-13.1195
-12.6698
-15.2897
-20.2235
-26.4061
-32.6155
-37.6348
-40.3999
-40.1184
-36.3463
-29.0171
-18.4243
-5.16249
9.96161
26.0358
42.1515
57.504
71.4706
83.6628
93.9461
102.43
109.43
115.415
120.933
126.546
132.76
139.974
148.441
158.255
169.349
181.514
194.427
207.689
220.86
233.495
245.172
255.511
264.185
270.92
275.49
277.705
277.408
274.462
268.756
260.209
248.785
234.513
217.509
197.999
176.335
152.998
128.598
103.848
79.5278
56.4378
35.3388
16.8929
1.60851
-10.2037
-18.4569
-23.2941
-25.0714
-24.3205
-21.6956
-17.9086
-13.6623
-9.58646
-6.18647
-3.80685
-2.61491
-2.6041
-3.61583
-5.37568
-7.53901
-9.73992
-11.6376
-12.9552
-13.5066
-13.2107
-12.0902
-10.2599
-7.90322
-5.24452
-2.51863
0.0567229
2.30282
4.09368
5.36061
6.0881
6.30265
6.0572
5.41423
4.43053
3.14633
1.58032
-0.268428
-2.41251
-4.86344
-7.61687
-10.6384
-13.8534
-17.1425
-20.345
-23.2697
-25.7132
-27.481
-28.4114
-28.3963
-27.3972
-25.4533
-22.6805
-19.2615
-15.4283
-11.4383
-7.54885
-3.9916
-0.950985
1.45132
3.16419
4.2066
4.65947
4.65121
4.3392
3.88967
3.45845
3.17493
3.13075
3.37425
3.91056
4.70697
5.70207
6.81721
7.96858
9.07816
10.0825
10.9382
11.6241
12.1404
12.5046
12.7465
12.9011
13.0033
13.0818
13.1551
13.2301
13.3007
13.3501
13.3527
13.2782
13.0956
12.7767
12.2999
11.6521
10.8293
9.83581
8.68072
7.37341
5.91753
4.30508
2.51156
0.493647
-1.80997
-4.47393
-7.57803
-11.1963
-15.3843
-20.1671
-25.5275
-31.3985
-37.659
-44.1336
-50.5976
-56.7857
-62.4048
-67.1493
-70.7205
-72.8476
-73.3097
-71.959
-68.7403
-63.7063
-57.0256
-48.9806
-39.9544
-30.4069
-20.8421
-11.7685
-3.65812
3.09232
8.19293
11.482
12.9345
12.6572
10.8714
7.88567
4.06184
-0.221536
-4.6044
-8.77533
-12.4939
-15.6035
-18.0342
-19.7957
-20.9627
-21.6551
-22.0148
-22.1829
-22.28
-22.3904
-22.5524
-22.7527
-22.9245
-22.9435
-22.6196
-21.6778
-19.7295
-16.2344
-10.4663
-1.49544
11.7894
30.6017
56.1091
89.2191
130.323
179.035
233.99
292.737
351.8
406.896
453.329
486.496
502.46
498.484
473.465
428.18
365.312
289.239
205.604
120.736
40.9719
-28.0074
-81.7599
-117.507
-134.352
-133.277
-116.919
-89.1816
-54.7138
-18.3494
15.4385
42.997
61.8194
70.7112
69.7866
60.3128
44.4324
24.8093
4.24824
-14.6638
-29.8528
-39.9585
-44.4268
-43.4922
-38.0638
-29.5381
-19.5709
-9.83842
-1.82034
3.37123
5.10056
3.24744
-1.82101
-9.33535
-18.2497
-27.3888
-35.5968
-41.8689
-45.4533
-45.9123
-43.1418
-37.349
-28.9967
-18.7228
-7.24764
4.71906
16.5605
27.8155
38.2167
47.7009
56.3945
64.5773
72.6312
80.9812
90.0357
100.133
111.497
124.208
124.208
124.208
124.208
124.208
124.208
124.208
124.208
124.208
124.208
124.208
124.208
124.208
124.208
124.208
124.208
124.208
124.208
124.208
124.208
