226.577
224.056
214.82
196.84
168.478
128.815
77.9189
17.0296
-51.3984
-123.812
-195.836
-262.681
-319.638
-362.593
-388.5
-395.733
-384.29
-355.8
-313.346
-261.118
-203.946
-146.77
-94.1189
-49.6524
-15.8285
6.27584
16.9745
17.8216
11.3282
0.588988
-11.1303
-20.7924
-25.9283
-24.8806
-16.9298
-2.29778
17.9627
42.1676
68.26
94.0902
117.682
137.455
152.378
162.043
166.658
166.965
164.098
159.41
154.285
149.957
147.371
147.075
149.182
153.377
158.976
165.03
170.452
174.149
175.159
172.758
166.534
156.433
142.751
126.093
107.308
87.3875
67.3693
48.2343
30.8205
15.7564
3.42219
-6.06136
-12.8166
-17.1702
-19.5979
-20.6599
-20.9356
-20.9638
-21.1941
-21.9535
-23.4306
-25.6754
-28.6145
-32.077
-35.8278
-39.6036
-43.1469
-46.235
-48.7021
-50.4512
-51.4571
-51.7605
-51.4549
-50.6687
-49.5445
-48.2189
-46.805
-45.379
-43.9729
-42.5739
-41.1298
-39.5593
-37.7664
-35.6565
-33.1513
-30.2016
-26.7962
-22.9649
-18.7762
-14.33
-9.74624
-5.15112
-0.663287
3.61907
7.62855
11.3362
14.7579
17.9609
21.0736
24.3
27.9382
32.3988
38.2169
46.0465
56.6265
70.7112
88.961
111.799
139.247
170.77
205.146
240.412
273.899
302.38
322.332
330.293
323.284
299.231
257.343
198.371
124.708
40.3028
-49.6331
-139.076
-221.77
-291.856
-344.477
-376.282
-385.762
-373.386
-341.508
-294.072
-236.151
-173.379
-111.344
-55.0251
-8.32816
26.2295
47.6549
56.4368
54.3406
44.0794
28.911
12.2127
-2.91071
-13.9449
-19.178
-17.7937
-9.84594
3.86689
22.0015
42.9096
64.883
86.3726
106.157
123.443
137.9
149.624
159.047
166.817
173.652
180.21
186.967
194.144
201.66
209.142
215.972
221.363
224.464
224.469
220.719
212.785
200.529
184.12
164.028
140.977
115.873
89.7234
63.5451
38.2806
14.7298
-6.49759
-25.0051
-40.6065
-53.3023
-63.2385
-70.6579
-75.8485
-79.0993
-80.6661
-80.7536
-79.5118
-77.0464
-73.4396
-68.7748
-63.1611
-56.7522
-49.7559
-42.433
-35.0851
-28.0339
-21.5934
-16.0414
-11.5924
-8.37668
-6.42774
-5.67991
-5.9762
-7.08513
-8.72452
-10.589
-12.3781
-13.8208
-14.694
-14.83
-14.1117
-12.4525
-9.76211
-5.89971
-0.622366
6.46191
15.9229
28.5047
45.0763
66.5311
93.6332
126.826
166.021
210.411
258.325
307.188
353.594
393.522
422.68
436.954
432.916
408.321
362.524
296.748
214.152
119.671
19.624
-78.8638
-168.564
-242.895
-296.612
-326.365
-331.035
-311.828
-272.1
-216.936
-152.562
-85.6389
-22.5365
31.3181
71.9577
97.1957
106.727
102.013
85.9695
62.5217
36.074
10.9701
-8.9949
-20.9578
-23.2299
-15.3828
1.81893
26.616
56.5493
88.8069
120.578
149.369
173.258
191.043
202.307
207.37
207.169
203.072
196.666
189.53
183.045
178.228
175.642
175.348
176.936
179.602
182.265
183.721
182.794
178.487
170.102
157.327
140.281
119.499
95.8847
70.6155
45.0237
20.4641
-1.81577
-20.7898
-35.7384
-46.2971
-52.4656
-54.5786
-53.2434
-49.2551
-43.4994
-36.8557
-30.1113
-23.8954
-18.6381
-14.5573
-11.6718
-9.83557
-8.78802
-8.21146
-7.78867
-7.25342
-6.42851
-5.24799
-3.76224
-2.12736
-0.583266
0.572017
1.00226
0.338084
-1.83792
-6.02341
-12.8347
-23.0332
-37.5185
-57.2724
-83.2424
-116.172
-156.395
-203.617
-256.732
-313.713
-371.608
-426.673
-474.654
-511.185
-532.275
-534.807
-516.995
-478.703
-421.594
-349.061
-265.945
-178.064
-91.6271
-12.5828
53.9911
104.393
136.63
150.545
147.725
131.216
105.08
73.8744
42.1086
13.7612
-8.08853
-21.4721
-25.5717
-20.5994
-7.55124
12.1115
36.7905
65.0288
95.6913
128.019
161.555
195.964
230.79
265.209
297.841
326.671
349.111
362.217
363.03
349.012
318.487
271.042
207.783
131.434
46.2142
-42.484
-128.588
-205.952
-268.998
-313.315
-336.13
-336.601
-315.889
-277.003
-224.447
-163.705
-100.637
-40.8656
10.7912
50.7592
76.9859
89.0314
87.9734
76.152
56.7945
33.574
10.1577
-10.2006
-24.9815
-32.605
-32.505
-25.0799
-11.5351
6.35168
26.5069
46.8425
65.5078
81.0846
92.7095
100.114
103.589
103.884
102.06
99.319
96.834
95.5928
96.2828
99.2177
104.315
111.119
118.871
126.605
133.263
137.821
139.401
137.368
131.397
121.506
108.054
91.7016
73.3445
54.0215
34.8143
16.7451
0.684405
-12.7221
-23.0996
-30.3605
-34.6903
-36.5064
-36.3954
-35.0382
-33.1306
-31.3096
-30.0927
-29.8352
-30.7097
-32.7076
-35.66
-39.2748
-43.1846
-46.9982
-50.3507
-52.9452
-54.5838
-55.1836
-54.7773
-53.5004
-51.5667
-49.2358
-46.7787
-44.444
-42.4297
-40.8633
-39.7915
-39.1791
-38.9144
-38.8168
-38.6409
-38.072
-36.707
-34.0223
-29.3324
-21.7513
-10.1777
6.67603
30.1843
61.6267
101.924
151.318
209.039
273.034
339.828
404.584
461.402
503.863
525.765
521.955
489.148
426.592
336.456
223.869
96.5667
-35.8243
-162.778
-274.012
-360.637
-416.149
-437.138
-423.632
-379.018
-309.579
-223.692
-130.831
-40.4613
38.9892
100.996
141.527
159.303
155.724
134.493
100.989
61.5094
22.4586
-10.4059
-32.5837
-41.2422
-35.3942
-15.8433
15.0755
53.9096
96.5945
138.982
177.329
208.683
231.148
243.988
247.586
243.277
233.077
219.363
204.541
190.737
179.563
171.96
168.145
167.65
169.448
172.132
174.136
173.953
170.337
162.446
149.942
133.009
112.316
88.9197
64.1317
39.3648
15.9785
-4.85653
-22.2623
-35.7156
-45.0645
-50.5027
-52.5078
-51.7549
-49.0183
-45.0757
-40.6242
-36.219
-32.2383
-28.8764
-26.1611
-23.9901
-22.1795
-20.5147
-18.7978
-16.8842
-14.705
-12.2743
-9.68136
-7.07091
-4.61549
-2.48421
-0.81162
0.330901
0.960767
1.20781
1.3379
1.7774
3.13649
6.22428
12.0437
21.7498
36.5553
57.573
85.5968
120.841
162.677
209.416
258.209
305.101
345.281
373.533
384.83
375.023
341.509
283.782
203.753
105.789
-3.57357
-116.215
-223.256
-316.017
-386.974
-430.611
-444.029
-427.251
-383.179
-317.218
-236.617
-149.62
-64.5351
11.1557
71.5509
112.855
133.632
134.771
119.19
91.3312
56.5233
20.3013
-12.2369
-36.9595
-51.0646
-53.2505
-43.6928
-23.8496
3.86168
36.4637
70.8365
104.1
133.921
158.706
177.69
190.896
199.006
203.167
204.753
205.134
205.465
206.539
208.693
211.8
215.313
218.38
219.977
219.073
214.776
206.46
193.849
177.054
156.568
133.203
108.006
82.1435
56.7861
32.9963
11.6388
-6.6814
-21.6457
-33.216
-41.5979
-47.1817
-50.47
-52.0026
-52.2882
-51.7509
-50.6964
-49.3002
-47.6165
-45.6042
-43.1648
-40.1847
-36.5756
-32.3073
-27.428
-22.0702
-16.4431
-10.8123
-5.47193
-0.71324
3.20531
6.08291
7.79324
8.29208
7.61587
5.8724
3.22571
-0.122536
-3.95264
-8.04545
-12.1982
-16.2364
-20.0214
-23.4534
-26.4704
-29.0443
-31.1736
-32.8763
-34.1819
-35.124
-35.7348
-36.041
-36.0625
-35.8118
-35.2953
-34.5158
-33.4746
-32.1738
-30.6177
-28.814
-26.7741
-24.5134
-22.052
-19.4151
-16.6338
-13.7465
-10.7997
-7.84819
-4.95419
-2.18572
0.386729
2.69433
4.67477
6.27711
7.46632
8.22653
8.56293
8.50173
8.08831
7.38358
6.45909
5.39133
4.25584
3.1219
2.04827
1.08036
0.2492
-0.427995
-0.945743
-1.30719
-1.52047
-1.59512
-1.53896
-1.35599
-1.04526
-0.60087
-0.0128938
0.731326
1.6458
2.74517
4.04521
5.56563
7.33612
9.4071
11.8665
14.863
18.6362
23.549
30.1198
39.0411
51.1752
67.5107
89.0674
116.742
151.097
192.119
238.967
289.776
341.56
390.272
431.045
458.623
467.951
454.844
416.658
352.842
265.284
158.374
38.7424
-85.2982
-204.564
-309.958
-393.452
-448.967
-473.038
-465.173
-427.863
-366.251
-287.497
-199.938
-112.14
-31.9709
34.2039
82.0998
109.821
117.87
108.875
87.1006
57.7955
26.4909
-1.67639
-22.5301
-33.251
-32.5709
-20.759
0.578285
28.8423
60.8733
93.4069
123.494
148.837
168.007
180.524
186.813
188.039
185.872
182.203
178.864
177.374
178.753
183.416
191.141
201.139
212.171
222.731
231.238
236.241
236.582
231.531
220.859
204.843
184.225
160.117
133.869
106.926
80.683
56.3588
34.9004
16.9239
2.6973
-7.84013
-15.026
-19.4018
-21.6278
-22.3983
-22.3647
-22.0743
-21.9296
-22.1699
-22.8745
-23.9837
-25.3356
-26.7094
-27.8719
-28.6201
-28.8142
-28.3988
-27.4093
-25.9648
-24.2481
-22.4786
-20.8803
-19.6506
-18.934
-18.8048
-19.2589
-20.2172
-21.5379
-23.0365
-24.5098
-25.7599
-26.6168
-26.9545
-26.701
-25.8407
-24.41
-22.4866
-20.1755
-17.5923
-14.8447
-12.014
-9.1358
-6.17915
-3.02422
0.560865
4.9423
10.6373
18.3181
28.7949
42.9653
61.7238
85.8239
115.699
151.258
191.681
235.263
279.348
320.391
354.188
376.262
382.38
369.147
334.579
278.565
203.137
112.471
12.6086
-89.0958
-184.732
-266.698
-328.56
-365.786
-376.26
-360.499
-321.556
-264.614
-196.347
-124.115
-55.1187
4.39597
49.7685
78.3347
89.5735
84.9887
67.7595
42.2192
13.2398
-14.3936
-36.5403
-50.1311
-53.4226
-46.0655
-28.9959
-4.18175
25.7284
57.8001
89.196
117.502
140.96
158.591
170.203
176.3
177.912
176.377
173.112
169.401
166.223
164.15
163.304
163.387
163.76
163.57
161.885
157.843
150.765
140.256
126.248
109.011
89.1209
67.3931
44.7967
22.3555
1.05041
-18.2667
-34.9391
-48.547
-58.9218
-66.1346
-70.4618
-72.3346
-72.2779
-70.8475
-68.5709
-65.8989
-63.1714
-60.5991
-58.2627
-56.1264
-54.0648
-51.896
-49.4194
-46.4513
-42.8564
-38.5691
-33.6062
-28.0681
-22.1298
-16.0246
-10.0223
-4.4051
0.555168
4.61796
7.59015
9.33765
9.79227
8.95438
6.89227
3.73909
-0.311215
-5.008
-10.0463
-15.0661
-19.6476
-23.3004
-25.4487
-25.4135
-22.3984
-15.4882
-3.67371
14.0832
38.7312
70.9536
110.943
158.151
211.06
267.026
322.253
371.951
410.689
432.937
433.74
409.443
358.35
281.221
181.488
65.1563
-59.6439
-183.413
-296.252
-388.935
-453.943
-486.314
-484.206
-449.1
-385.601
-300.89
-203.878
-104.197
-11.1279
67.3706
125.448
159.86
170.138
158.437
129.088
87.9403
41.5762
-3.49225
-41.549
-68.2436
-80.948
-78.8782
-62.9872
-35.6649
-0.298201
39.239
79.0987
115.91
147.121
171.198
187.677
197.076
200.684
200.29
197.865
195.268
193.985
194.962
198.51
204.314
211.52
218.894
225.011
228.464
228.054
222.949
212.781
197.682
178.266
155.536
130.766
105.348
80.6312
57.7856
37.6837
20.8316
7.34547
-3.02366
-10.8228
-16.7985
-21.7799
-26.5595
-31.7854
-37.8782
-44.9816
-52.9518
-61.3844
-69.6758
-77.1085
-82.9495
-86.5491
-87.4271
-85.3366
-80.2974
-72.5969
-62.7588
-51.4853
-39.581
-27.8676
-17.1011
-7.9002
-0.694299
4.30554
7.10948
7.92846
7.13434
5.20734
2.67883
0.0781352
-2.10813
-3.45665
-3.60278
-2.20954
1.08579
6.73659
15.3457
27.6952
44.7236
67.4305
96.7019
133.066
176.41
225.712
278.844
332.514
382.39
423.43
450.391
458.476
444.019
405.111
342.059
257.598
156.792
46.6298
-64.6462
-168.408
-256.58
-322.53
-361.799
-372.568
-355.811
-315.114
-256.198
-186.209
-112.867
-43.5996
15.2552
59.0675
85.3001
93.6259
85.7812
65.1925
36.4368
4.61288
-25.2951
-48.9844
-63.2702
-66.3497
-57.8779
-38.8623
-11.4065
21.6514
57.1529
92.0264
123.643
150.075
170.249
183.963
191.808
194.986
195.079
193.79
192.696
193.044
195.603
200.599
207.717
216.174
224.847
232.425
237.581
239.127
236.147
228.083
214.786
196.514
173.887
147.816
119.408
89.8633
60.3725
32.0325
5.77594
-17.6741
-37.8264
-54.4225
-67.4179
-76.9508
-83.3005
-86.843
-88.0071
-87.2346
-84.9486
-81.5301
-77.3043
-72.5354
-67.4285
-62.1365
-56.7702
-51.4092
-46.1119
-40.9238
-35.8827
-31.0227
-26.3742
-21.9637
-17.8124
-13.9344
-10.3364
-7.01717
-3.97021
-1.18639
1.34143
3.61327
5.61688
7.32328
8.68402
9.63088
10.0789
9.93327
9.09948
7.49714
5.07508
1.8265
-2.19849
-6.8851
-12.0529
-17.463
-22.8327
-27.8574
-32.2368
-35.7027
-38.0443
-39.1286
-38.9131
-37.4489
-34.874
-31.3984
-27.282
-22.8088
-18.2602
-13.8899
-9.90437
-6.44879
-3.60028
-1.36808
0.300993
1.51322
2.41682
3.19058
4.03312
5.15278
6.75778
9.04532
12.1891
16.3245
21.5321
27.8204
35.11
43.2217
51.8732
60.6862
69.2103
76.9635
83.4919
88.4468
91.6733
93.3009
93.8226
94.1433
95.5786
99.7835
108.599
123.816
146.866
178.482
218.37
264.963
315.308
365.155
409.25
441.847
457.375
451.175
420.227
363.716
283.379
183.531
70.7659
-46.6573
-159.664
-259.348
-337.956
-389.747
-411.611
-403.37
-367.728
-309.888
-236.881
-156.718
-77.4689
-6.38353
50.8381
90.5455
111.365
114.143
101.641
78.0276
48.2536
17.3971
-9.94673
-30.1547
-40.8983
-41.2757
-31.7559
-13.9607
9.67239
36.2907
63.0345
87.4003
107.516
122.306
131.531
135.717
135.987
133.837
130.881
128.606
128.174
130.276
135.073
142.204
150.87
159.96
168.22
174.419
177.504
176.727
171.716
162.51
149.53
133.513
115.417
96.3055
77.2312
59.1303
42.7417
28.5549
16.7918
7.41941
0.189849
-5.29996
-9.53787
-13.0243
-16.2069
-19.4279
-22.8911
-26.648
-30.6055
-34.5512
-38.1924
-41.2035
-43.2751
-44.1583
-43.7002
-41.8651
-38.7405
-34.5282
-29.5206
-24.0691
-18.5447
-13.3002
-8.63528
-4.77001
-1.82843
0.165882
1.28345
1.67286
1.53799
1.11137
0.627127
0.296278
0.286782
0.709857
1.61328
2.98156
4.74215
6.77654
8.93468
11.0513
12.9633
14.5279
15.6424
16.2677
16.4561
16.387
16.4052
17.0584
19.1214
23.5899
31.6273
44.448
63.1323
88.3808
120.237
157.827
199.167
241.114
279.488
309.407
325.805
324.082
300.816
254.394
185.494
97.2868
-4.67068
-112.883
-218.647
-312.989
-387.674
-436.176
-454.442
-441.378
-398.979
-332.083
-247.798
-154.67
-61.7064
22.6146
91.2382
139.215
164.107
166.078
147.681
113.391
68.945
20.5976
-25.6251
-64.5768
-92.4813
-107.217
-108.378
-97.134
-75.9085
-47.9548
-16.8733
13.856
41.2712
63.2164
78.4948
86.8843
89.0271
86.2234
80.1644
72.6456
65.2998
59.3811
55.623
54.1814
54.6603
56.2095
57.6744
57.7743
55.284
49.1967
38.8504
24.0059
4.8719
-17.9215
-43.3932
-70.3153
-97.3364
-123.11
-146.418
-166.264
-181.957
-193.141
-199.805
-202.255
-201.059
-196.976
-190.87
-183.623
-176.061
-168.884
-162.617
-157.589
-153.923
-151.552
-150.247
-149.663
-149.388
-148.99
-148.064
-146.271
-143.363
-139.195
-133.73
-127.026
-119.22
-110.509
-101.125
-91.3152
-81.3245
-71.3791
-61.6779
-52.3861
-43.6317
-35.5053
-28.061
-21.3189
-15.2684
-9.87304
-5.07591
-0.807405
3.00608
6.43207
9.52139
12.2984
14.7533
16.8384
18.4696
19.5339
19.9031
19.452
18.0796
15.7309
12.4153
8.22035
3.31733
-2.04141
-7.535
-12.795
-17.4335
-21.0755
-23.3921
-24.1311
-23.1417
-20.3891
-15.9596
-10.0538
-2.96939
4.92342
13.213
21.4789
29.3237
36.4007
42.4355
47.2396
50.7151
52.8524
53.7191
53.4448
52.2018
50.1848
47.5915
44.6054
41.3828
38.0428
34.6635
31.2808
27.8923
24.4632
20.9358
17.2395
13.3025
9.06413
4.48825
-0.420818
-5.59847
-10.8937
-16.0352
-20.5905
-23.9223
-25.1509
-23.1389
-16.5156
-3.76318
16.6238
45.8996
84.767
133.052
189.411
251.137
314.133
373.101
421.965
454.5
465.092
449.548
405.808
334.458
238.941
125.407
2.20561
-120.932
-233.923
-327.444
-393.968
-428.608
-429.642
-398.658
-340.314
-261.741
-171.675
-79.4456
6.0697
77.377
129.088
158.356
164.985
151.235
121.353
80.9181
36.0942
-7.12229
-43.5586
-69.3615
-82.2893
-81.7825
-68.8297
-45.6646
-15.3491
18.6942
53.1368
85.1328
112.598
134.361
150.175
160.612
166.865
170.488
173.124
176.249
180.97
187.893
197.067
208.011
219.803
231.226
240.927
247.588
250.084
247.592
239.67
226.282
207.776
184.828
158.35
129.397
99.0573
68.3691
38.2449
9.4292
-17.5183
-42.2134
-64.4179
-83.997
-100.874
-114.989
-126.27
-134.623
-139.938
-142.108
-141.069
-136.833
-129.523
-119.404
-106.888
-92.5257
-76.987
-61.0133
-45.3665
-30.7703
-17.8529
-7.09759
1.19204
6.91016
10.1469
11.168
10.3788
8.27733
5.40236
2.28448
-0.594021
-2.82338
-4.07039
-4.06025
-2.53791
0.784683
6.28401
14.4663
25.9747
41.5432
61.8828
87.4992
118.457
154.13
192.982
232.453
268.994
298.288
315.673
316.71
297.847
257.059
194.366
112.127
15.0332
-90.2186
-195.55
-292.351
-372.448
-429.048
-457.543
-456.051
-425.626
-370.109
-295.651
-209.966
-121.418
-38.0804
33.1371
87.174
121.245
134.97
130.22
110.696
81.3457
47.6654
15.0108
-12.0169
-30.036
-37.1576
-33.0531
-18.8249
3.28325
30.2867
58.9101
86.0277
109.039
126.14
136.464
140.095
137.949
131.571
122.867
113.815
106.199
101.392
100.206
102.833
108.864
117.383
127.111
136.586
144.339
149.064
149.749
145.764
136.902
123.369
105.745
84.8977
61.8987
37.9155
14.1164
-8.41537
-28.7501
-46.1586
-60.138
-70.4186
-76.9541
-79.8999
-79.5837
-76.4714
-71.1316
-64.1991
-56.3396
-48.2148
-40.4495
-33.5994
-28.1222
-24.3537
-22.4896
-22.5766
-24.5135
-28.0633
-32.8768
-38.5248
-44.5371
-50.4443
-55.8169
-60.2988
-63.6294
-65.6509
-66.2977
-65.5666
-63.4676
-59.9597
-54.8788
-47.8703
-38.3425
-25.4612
-8.2037
14.5146
43.6385
79.7125
122.593
171.188
223.28
275.496
323.465
362.176
386.519
391.94
375.128
334.619
271.212
188.119
90.7992
-13.521
-116.58
-209.983
-286.149
-339.167
-365.463
-364.169
-337.165
-288.787
-225.25
-153.868
-82.1776
-17.0873
35.8583
72.9994
92.8241
95.9564
84.8923
63.5345
36.5998
8.98397
-14.8354
-31.2865
-38.0331
-34.1202
-19.9358
2.98635
32.283
65.1448
98.7103
130.421
158.295
181.095
198.379
210.443
218.164
222.797
225.727
228.243
231.338
235.578
241.034
247.297
253.552
258.707
261.554
260.937
255.911
245.865
230.604
210.383
185.885
158.155
128.494
98.3406
69.1296
42.1695
18.5331
-1.02086
-16.0911
-26.6398
-32.9632
-35.6346
-35.4251
-33.2152
-29.9059
-26.3379
-23.2269
-21.1184
-20.3637
-21.1172
-23.3519
-26.8893
-31.4384
-36.6408
-42.1153
-47.4988
-52.4812
-56.8301
-60.4068
-63.1705
-65.1726
-66.5413
-67.4556
-68.1109
-68.6764
-69.2445
-69.7759
-70.044
-69.5852
-67.6651
-63.2734
-55.1627
-41.9444
-22.2512
5.03571
40.5106
83.9521
134.067
188.327
242.958
293.118
333.288
357.845
361.756
341.309
294.768
222.833
128.833
18.5925
-100.041
-217.948
-325.692
-414.537
-477.425
-509.746
-509.834
-479.106
-421.846
-344.651
-255.639
-163.511
-76.5882
-1.95163
55.2273
92.0922
108.214
105.42
87.3788
59.0128
25.8269
-6.7674
-34.0457
-52.4243
-59.7335
-55.2984
-39.8391
-15.2214
15.8941
50.454
85.4092
118.063
146.332
168.907
185.291
195.747
201.147
202.774
202.094
200.526
199.254
199.081
200.353
202.949
206.339
209.685
211.984
212.216
209.487
203.151
192.892
178.755
161.146
140.775
118.582
95.6309
73.0043
51.7019
32.5544
16.1628
2.86558
-7.26389
-14.3934
-18.8857
-21.2379
-22.0141
-21.7785
-21.0379
-20.1971
-19.5321
-19.1816
-19.1555
-19.3586
-19.6242
-19.7525
-19.5498
-18.8613
-17.597
-15.7444
-13.3712
-10.6154
-7.66634
-4.7403
-2.05294
0.206665
1.89752
2.94122
3.32802
3.11429
2.41241
1.37461
0.173599
-1.01769
-2.04427
-2.7831
-3.15108
-3.10591
-2.63959
-1.7647
-0.494058
1.18508
3.34123
6.13153
9.83433
14.8773
21.8539
31.5184
44.7476
62.4591
85.4774
114.352
149.138
189.18
232.922
277.818
320.364
356.3
380.982
389.894
379.252
346.61
291.373
215.13
121.732
17.0774
-91.3857
-195.387
-286.709
-358.091
-404.04
-421.45
-409.94
-371.862
-312.004
-237.004
-154.576
-72.6383
1.54246
62.0898
105.056
128.708
133.542
122.046
98.2525
67.1511
34.0418
3.90918
-19.1112
-32.1183
-33.6525
-23.7127
-3.60201
24.3658
57.2494
91.8981
125.352
155.175
179.689
198.09
210.44
217.553
220.79
221.814
222.314
223.761
227.2
233.12
241.397
251.32
261.694
270.991
277.544
279.749
276.256
266.126
248.944
224.868
194.618
159.413
120.851
80.7598
41.0303
3.45372
-30.4246
-59.4155
-82.753
-100.114
-111.594
-117.64
-118.965
-116.443
-111.007
-103.556
-94.8926
-85.6739
-76.3977
-67.4072
-58.9141
-51.0314
-43.8084
-37.2629
-31.4045
-26.2486
-21.8205
-18.1498
-15.2616
-13.1631
-11.8339
-11.2178
-11.2216
-11.7184
-12.5559
-13.5683
-14.5877
-15.4539
-16.0175
-16.1341
-15.6471
-14.3577
-11.9848
-8.11833
-2.1759
6.62587
19.2689
36.884
60.6387
91.5576
130.28
176.78
230.088
288.075
347.359
403.381
450.701
483.489
496.188
484.268
444.952
377.82
285.162
172.014
45.8411
-84.1179
-207.774
-315.258
-398.017
-449.763
-467.183
-450.29
-402.38
-329.611
-240.256
-143.731
-49.5337
33.783
99.4768
143.223
163.405
161.076
139.618
104.152
60.8093
15.9349
-24.6508
-56.2653
-75.7816
-81.8214
-74.7213
-56.2963
-29.4523
2.29385
35.3154
66.3367
92.8001
113.102
126.683
133.972
136.209
135.184
132.915
131.343
132.05
136.051
143.68
154.572
167.734
181.696
194.719
205.016
210.976
211.355
205.409
192.968
174.439
150.738
123.181
93.3276
62.814
33.1877
5.76712
-18.4632
-38.9098
-55.3797
-68.0423
-77.3554
-83.9665
-88.6043
-91.9754
-94.6783
-97.1453
-99.6141
-102.131
-104.58
-106.73
-108.292
-108.972
-108.523
-106.78
-103.675
-99.2454
-93.6225
-87.007
-79.6402
-71.7661
-63.59
-55.2339
-46.6889
-37.7695
-28.0738
-16.9585
-3.54326
13.2415
34.5488
61.4446
94.6765
134.406
179.939
229.518
280.219
328.025
368.083
395.163
404.27
391.334
353.887
291.604
206.627
103.579
-10.7378
-127.96
-239.012
-335.089
-408.635
-454.197
-469.023
-453.344
-410.291
-345.468
-266.255
-180.912
-97.6385
-23.6734
35.4256
76.2647
97.8047
101.26
89.7378
67.6871
40.2356
12.5112
-10.9702
-26.7785
-32.8624
-28.64
-14.8988
6.46489
32.8178
61.2134
88.8099
113.228
132.809
146.749
155.106
158.687
158.85
157.241
155.527
155.139
157.078
161.787
169.115
178.363
188.399
197.83
205.192
209.149
208.655
203.083
192.289
176.622
156.87
134.162
109.847
85.3417
61.9965
40.9681
23.127
9.00065
-1.2452
-7.78629
-11.0887
-11.8337
-10.8296
-8.92042
-6.90008
-5.44175
-5.04612
-6.01247
-8.4326
-12.2058
-17.071
-22.6514
-28.505
-34.1768
-39.2462
-43.3667
-46.2935
-47.899
-48.1752
-47.2238
-45.2367
-42.4701
-39.2143
-35.7632
-32.3872
-29.3108
-26.6968
-24.6389
-23.161
-22.2235
-21.7343
-21.5629
-21.5556
-21.5494
-21.3847
-20.9151
-20.0144
-18.5821
-16.5472
-13.8718
-10.5544
-6.6333
-2.18958
2.65118
7.7194
12.8055
17.6683
22.0482
25.6851
28.3398
29.8165
29.9852
28.799
26.306
22.6516
18.0721
12.8778
7.42853
2.10264
-2.73592
-6.77
-9.75688
-11.5483
-12.1003
-11.4721
-9.81174
-7.32987
-4.26064
-0.810641
2.90245
6.91789
11.4996
17.1925
24.8517
35.627
50.8837
72.0498
100.387
136.704
181.042
232.393
288.503
345.821
399.645
444.479
474.579
484.637
470.521
429.949
362.999
272.359
163.263
43.0865
-79.3412
-194.643
-293.894
-369.591
-416.459
-432.001
-416.718
-373.976
-309.56
-230.953
-146.47
-64.3297
8.20532
65.5295
104.162
122.943
122.951
107.182
80.0326
46.6746
12.4
-17.9891
-40.6724
-53.1425
-54.3499
-44.662
-25.6593
0.191507
29.9364
60.5494
89.3126
114.117
133.655
147.49
156.005
160.256
161.737
162.127
163.017
165.68
170.903
178.884
189.227
201.002
212.886
223.333
230.773
233.809
231.381
222.883
208.236
187.882
162.74
134.098
103.48
72.4949
42.6808
15.3708
-8.41312
-28.0272
-43.2291
-54.1589
-61.2833
-65.3119
-67.0969
-67.5283
-67.4362
-67.5089
-68.2341
-69.8664
-72.4225
-75.6999
-79.3186
-82.7768
-85.5169
-86.9946
-86.7435
-84.4316
-79.9021
-73.1959
-64.5534
-54.3953
-43.2839
-31.8695
-20.8272
-10.7905
-2.28881
4.30627
8.82222
11.3139
12.0804
11.6738
10.9013
10.8176
12.7026
18.0091
28.2663
44.9252
69.143
101.517
141.804
188.666
239.521
290.542
336.863
372.988
393.401
393.275
369.219
319.906
246.51
152.832
45.0928
-68.6104
-179.122
-277.219
-354.643
-405.039
-424.675
-412.843
-371.907
-306.981
-225.303
-135.369
-45.9741
34.7501
100.166
145.742
169.385
171.475
154.611
123.132
82.4735
38.4595
-3.38377
-38.4143
-63.2997
-76.2469
-77.0277
-66.8189
-47.8943
-23.222
3.97562
30.6408
54.2302
72.9604
85.9306
93.1199
95.2752
93.7132
90.0715
86.0456
83.1439
82.4925
84.707
89.8435
97.4268
106.545
115.995
124.454
130.655
133.547
132.414
126.949
117.276
103.92
87.7278
69.7664
51.1953
33.1424
16.5927
2.30216
-9.25457
-17.9006
-23.7382
-27.1013
-28.4882
-28.4829
-27.6782
-26.6064
-25.6874
-25.1968
-25.2557
-25.8413
-26.8138
-27.9549
-29.0113
-29.7375
-29.9325
-29.4662
-28.2938
-26.4571
-24.0735
-21.3171
-18.3926
-15.508
-12.8495
-10.5603
-8.72786
-7.37813
-6.479
-5.95007
-5.67772
-5.53268
-5.38759
-5.13222
-4.68465
-3.99719
-3.05718
-1.88321
-0.518297
0.97818
2.53801
4.08982
5.56221
6.8844
7.9853
8.7922
9.23035
9.22465
8.70383
7.60714
5.89273
3.54671
0.591162
-2.91002
-6.84883
-11.0749
-15.402
-19.6175
-23.4964
-26.8167
-29.3755
-31.0055
-31.5891
-31.0698
-29.4595
-26.8408
-23.3633
-19.235
-14.708
-10.0599
-5.57244
-1.50798
1.9128
4.5316
6.26867
7.13261
7.22237
6.72011
5.87496
4.97847
4.33407
4.22341
4.87346
6.4283
8.92883
12.3034
16.3701
20.852
25.4022
29.6373
33.176
35.6771
36.8748
36.6061
34.8292
31.6301
27.2204
21.9262
16.1749
10.4827
5.44826
1.75481
0.179601
1.60346
7.00864
17.4484
33.9714
57.488
88.5775
127.252
172.71
223.126
275.544
325.915
369.328
400.43
414.013
405.693
372.597
313.939
231.39
129.173
13.8199
-106.372
-222.151
-324.273
-404.515
-456.585
-476.824
-464.606
-422.381
-355.362
-270.906
-177.655
-84.5719
0.0318973
69.3401
118.666
145.809
151.1
137.171
108.463
70.5818
29.565
-8.83271
-39.7602
-59.7288
-66.87
-60.9796
-43.3641
-16.524
16.2701
51.449
85.6016
115.865
140.205
157.566
167.889
171.996
171.39
167.978
163.783
160.661
160.072
162.918
169.469
179.367
191.709
205.19
218.274
229.385
237.082
240.205
237.979
230.069
216.58
198.024
175.235
149.283
121.361
92.6821
64.3938
37.5028
12.8275
-9.02792
-27.6796
-42.9521
-54.8546
-63.5487
-69.3124
-72.5031
-73.5236
-72.7919
-70.7153
-67.6706
-63.9895
-59.9491
-55.7669
-51.6005
-47.5515
-43.6721
-39.9752
-36.4461
-33.0542
-29.7649
-26.5491
-23.3889
-20.2789
-17.2212
-14.2119
-11.2196
-8.15418
-4.82715
-0.909705
4.10397
10.914
20.3966
33.5336
51.2807
74.3752
103.101
137.05
174.921
214.42
252.306
284.607
307.006
315.366
306.317
277.832
229.675
163.662
83.6538
-4.72488
-94.6184
-178.668
-249.835
-302.203
-331.664
-336.382
-316.981
-276.437
-219.686
-153.022
-83.348
-17.3933
39.0111
81.5107
107.599
116.748
110.304
91.1674
63.3235
31.2868
-0.468326
-28.0153
-48.3696
-59.7298
-61.5507
-54.4572
-40.0234
-20.4596
1.74423
24.1692
44.768
62.0813
75.3515
84.5294
90.1837
93.3363
95.2525
97.2183
100.336
105.364
112.616
121.934
132.716
144.017
154.67
163.447
169.205
171.026
168.316
160.867
148.878
132.921
113.882
92.8631
71.0769
49.7305
29.9206
12.5452
-1.75854
-12.6487
-20.0812
-24.2845
-25.7117
-24.9754
-22.7733
-19.8144
-16.7508
-14.123
-12.3222
-11.572
-11.9286
-13.2986
-15.4694
-18.1491
-21.0084
-23.7221
-26.0041
-27.6338
-28.4716
-28.463
-27.633
-26.0721
-23.9174
-21.3312
-18.4811
-15.5234
-12.5923
-9.7945
-7.21034
-4.8987
-2.90493
-1.26901
-0.0320298
0.760633
1.06051
0.821617
0.00978148
-1.38587
-3.34128
-5.78799
-8.60817
-11.6357
-14.6644
-17.4626
-19.7941
-21.4409
-22.2271
-22.0394
-20.8412
-18.679
-15.6795
-12.0382
-8.0003
-3.83665
0.182073
3.8104
6.84913
9.16048
10.6759
11.3963
11.3856
10.7583
9.66407
8.27077
6.74773
5.25173
3.91639
2.84561
2.11155
1.75683
1.80089
2.25043
3.11415
4.42215
6.25077
8.75281
12.1925
16.9822
23.7143
33.1784
46.3495
64.3311
88.2396
119.024
157.23
202.731
254.467
310.262
366.752
419.5
463.3
492.674
502.511
488.767
449.129
383.524
294.402
186.703
67.5113
-54.5937
-170.398
-271.033
-348.934
-398.665
-417.492
-405.636
-366.187
-304.679
-228.411
-145.587
-64.3964
7.8462
65.4182
104.67
124.238
124.982
109.676
82.5105
48.4763
12.7259
-20.0215
-45.9579
-62.5049
-68.4507
-63.9116
-50.1423
-29.2359
-3.76458
23.5882
50.358
74.5563
94.8328
110.535
121.673
128.804
132.871
135.005
136.344
137.866
140.27
143.908
148.769
154.515
160.546
166.106
170.383
172.625
172.225
168.792
162.193
152.554
140.245
125.824
109.979
93.4511
76.9563
61.1236
46.4416
33.2277
21.6186
11.5829
2.95145
-4.53817
-11.191
-17.3036
-23.1199
-28.7986
-34.3962
-39.8654
-45.0702
-49.8115
-53.8615
-56.9997
-59.0454
-59.8839
-59.4803
-57.8833
-55.2158
-51.6576
-47.421
-42.7255
-37.7734
-32.7311
-27.7173
-22.8
-18.0009
-13.3066
-8.68396
-4.09733
0.475634
5.03103
9.53087
13.9009
18.0341
21.7998
25.0555
27.6622
29.4998
30.4804
30.5605
29.7475
28.1029
25.7392
22.8125
19.5111
16.0398
12.604
9.39236
6.56169
4.225
2.44341
1.22336
0.518881
0.23873
0.257612
0.43009
0.605699
0.643584
0.42513
-0.136522
-1.09051
-2.44535
-4.16763
-6.17973
-8.35335
-10.4956
-12.3257
-13.442
-13.2853
-11.1063
-5.95296
3.30464
17.8947
38.9977
67.5334
103.9
147.696
197.487
250.658
303.433
351.071
388.269
409.733
410.854
388.395
341.086
270.019
178.773
73.2146
-39.0043
-149.209
-248.626
-329.342
-385.185
-412.394
-410.008
-379.908
-326.539
-256.328
-176.913
-96.2481
-21.7387
40.5199
86.2987
113.54
122.387
114.966
94.9473
66.983
36.0705
6.94619
-16.4325
-31.2592
-36.0748
-30.7822
-16.4948
4.74424
30.326
57.4682
83.5855
106.592
125.109
138.552
147.11
151.616
153.352
153.802
154.405
156.335
160.328
166.592
174.79
184.093
193.312
201.058
205.937
206.731
202.554
192.973
178.056
158.374
134.931
109.063
82.2839
56.1349
32.0257
11.1036
-5.84411
-18.4422
-26.7318
-31.1287
-32.3447
-31.2827
-28.9193
-26.1908
-23.8942
-22.6139
-22.6813
-24.1674
-26.908
-30.5546
-34.6419
-38.6634
-42.1439
-44.7009
-46.0877
-46.2154
-45.1523
-43.1033
-40.3732
-37.3214
-34.3119
-31.6683
-29.6361
-28.3586
-27.8661
-28.0806
-28.8318
-29.8834
-30.9643
-31.8013
-32.1493
-31.8157
-30.678
-28.6916
-25.8903
-22.3781
-18.3153
-13.9001
-9.34895
-4.87622
-0.677078
3.08633
6.29365
8.86996
10.7847
12.0465
12.6961
12.7974
12.4291
11.6781
10.634
9.38625
8.02362
6.63673
5.32427
4.20493
3.4369
3.2464
3.96513
6.07269
10.2357
17.3298
28.4271
44.7301
67.4385
97.5444
135.57
181.278
233.407
289.493
345.833
397.647
439.451
465.616
471.069
452.028
406.672
335.62
242.141
132.026
13.1216
-105.43
-214.154
-304.281
-368.732
-402.907
-405.185
-377.066
-322.94
-249.536
-165.097
-78.428
2.08708
69.369
118.325
146.259
152.985
140.638
113.234
76.0557
34.9388
-4.44293
-37.2051
-59.7305
-69.9515
-67.4217
-53.1881
-29.4986
0.604134
33.7407
66.6448
96.549
121.466
140.343
153.072
160.392
163.678
164.673
165.204
166.909
171.009
178.164
188.404
201.152
215.312
229.427
241.864
251.007
255.449
254.139
246.494
232.45
212.466
187.465
158.74
127.826
96.3548
65.9116
37.9002
13.4388
-6.71161
-22.1791
-32.9735
-39.4424
-42.2005
-42.0395
-39.8318
-36.437
-32.623
-29.0057
-26.0141
-23.8797
-22.6491
-22.2158
-22.3637
-22.8173
-23.2909
-23.5318
-23.3525
-22.6502
-21.4126
-19.7099
-17.6782
-15.4941
-13.3476
-11.4149
-9.83579
-8.69759
-8.02738
-7.79251
-7.90898
-8.25574
-8.69273
-9.07995
-9.29509
-9.2474
-8.88644
-8.20466
-7.23421
-6.0385
-4.7003
-3.30813
-1.94308
-0.667859
0.480309
1.49217
2.38418
3.19209
3.96155
4.73746
5.55363
6.42466
7.34114
8.26901
9.15307
9.92426
10.5092
10.8411
10.8693
10.5674
9.93741
9.01066
7.84391
6.51293
5.10334
3.70069
2.38091
1.20245
0.201024
-0.612177
-1.24826
-1.73344
-2.09543
-2.34183
-2.42858
-2.21801
-1.42849
0.418183
4.04043
10.4151
20.7512
36.4
58.6912
88.6954
126.934
173.073
225.668
282.004
338.112
388.99
429.035
452.655
454.995
432.67
384.392
311.384
217.496
108.986
-6.03332
-118.418
-218.977
-299.503
-353.696
-377.87
-371.342
-336.466
-278.292
-203.935
-121.704
-40.1462
32.9093
91.1616
130.428
148.951
147.401
128.6
97.0128
58.0956
17.5787
-19.2155
-47.9437
-65.6428
-70.9267
-63.9744
-46.3306
-20.5609
10.1813
42.6124
73.7417
101.209
123.502
140.038
151.114
157.745
161.418
163.817
166.54
170.863
177.56
186.818
198.233
210.879
223.452
234.448
242.353
245.828
243.866
235.892
221.824
202.063
177.444
149.134
118.516
87.0453
56.1223
26.9747
0.570554
-22.4345
-41.7133
-57.2488
-69.2864
-78.2671
-84.7499
-89.3334
-92.5869
-94.9953
-96.9234
-98.6004
-100.122
-101.469
-102.535
-103.159
-103.16
-102.367
-100.641
-97.891
-94.0772
-89.2131
-83.3551
-76.5899
-69.0168
-60.7259
-51.7719
-42.1435
-31.7298
-20.2863
-7.40902
7.47499
25.0856
46.2239
71.6533
101.927
137.172
176.869
219.651
263.197
304.241
338.756
362.302
370.526
359.75
327.575
273.394
198.735
107.34
4.9727
-101.07
-202.674
-291.77
-361.226
-405.658
-422.035
-410.019
-371.974
-312.662
-238.666
-157.618
-77.3386
-4.98427
53.6733
94.7765
116.655
119.83
106.774
81.4555
48.7649
13.8752
-18.3651
-43.9442
-60.0516
-65.2642
-59.5514
-44.1162
-21.1078
6.74467
36.5249
65.4993
91.4208
112.738
128.695
139.321
145.326
147.92
148.596
148.892
150.178
153.475
159.339
167.808
178.413
190.255
202.128
212.673
220.546
224.576
223.898
218.047
207.003
191.181
171.374
148.66
124.28
99.51
75.5322
53.338
33.6534
16.9045
3.21982
-7.53582
-15.7017
-21.7482
-26.1996
-29.5641
-32.2779
-34.6688
-36.9412
-39.1799
-41.3697
-43.4257
-45.2262
-46.6445
-47.5739
-47.9433
-47.7239
-46.9253
-45.5871
-43.7656
-41.5208
-38.906
-35.9606
-32.7087
-29.1615
-25.3234
-21.1998
-16.8061
-12.1743
-7.35843
-2.43743
2.48512
7.28278
11.81
15.9076
19.4098
22.1532
23.9886
24.7932
24.4858
23.0398
20.4958
16.9686
12.6485
7.7951
2.72183
-2.22659
-6.70359
-10.3933
-13.043
-14.4905
-14.6842
-13.6903
-11.688
-8.95056
-5.81541
-2.64616
0.20895
2.45662
3.89141
4.41792
4.06018
2.9583
1.35515
-0.421744
-1.97627
-2.85104
-2.52083
-0.37209
4.32538
12.4406
24.9772
43.0205
67.6179
99.5849
139.251
186.178
238.903
294.771
349.923
399.479
437.932
459.733
459.997
435.237
384.011
307.371
209.025
95.1601
-26.068
-145.333
-253.124
-340.784
-401.486
-430.989
-428.097
-394.752
-335.76
-258.192
-170.531
-81.7007
-0.0811504
67.3632
115.741
142.612
148.063
134.482
106.093
68.3141
27.0329
-12.1026
-44.3024
-66.09
-75.5581
-72.4113
-57.8126
-34.0708
-4.22521
28.411
60.6878
89.9822
114.453
133.164
146.081
153.945
158.066
160.066
161.601
164.117
168.655
175.728
185.278
196.716
209.022
220.9
230.953
237.862
240.546
238.279
230.765
218.15
200.995
180.189
156.851
132.197
107.423
83.5907
61.5506
41.8863
24.9026
10.6425
-1.06778
-10.5564
-18.2355
-24.5333
-29.8355
-34.4439
-38.5532
-42.2479
-45.5151
-48.2708
-50.3922
-51.7526
-52.2516
-51.8387
-50.526
-48.3904
-45.566
-42.2281
-38.573
-34.7952
-31.0678
-27.5257
-24.2561
-21.2959
-18.635
-16.2266
-13.9999
-11.8753
-9.77919
-7.65529
-5.47344
-3.23317
-0.963148
1.28324
3.43511
5.41281
7.13673
8.5353
9.55105
10.1444
10.295
10.0007
9.27502
8.14327
6.63938
4.80349
2.68242
0.334162
-2.16217
-4.68988
-7.07137
-9.03896
-10.203
-10.0228
-7.78983
-2.63432
6.43205
20.4256
40.2471
66.4911
99.2244
137.769
180.532
224.931
267.461
303.916
329.785
340.765
333.354
305.413
256.634
188.806
105.826
13.4381
-81.2965
-170.726
-247.448
-305.144
-339.307
-347.749
-330.833
-291.4
-234.4
-166.278
-94.214
-25.3006
34.2325
79.648
108.124
118.927
113.331
94.3054
66.0412
33.36
1.108
-26.403
-45.8406
-55.1406
-53.617
-41.8982
-21.7123
4.43791
33.6585
63.0548
90.0793
112.799
130.054
141.51
147.592
149.333
148.169
145.694
143.428
142.617
144.088
148.168
154.682
163.003
172.16
180.976
188.224
192.762
193.668
190.317
182.442
170.134
153.82
134.202
112.182
88.7678
64.9901
41.8161
20.0847
0.458406
-16.6034
-30.8502
-42.2274
-50.8477
-56.9527
-60.8689
-62.9647
-63.6113
-63.1528
-61.8855
-60.0485
-57.8235
-55.3417
-52.6954
-49.9522
-47.1668
-44.3913
-41.6813
-39.0968
-36.7004
-34.5524
-32.7041
-31.1912
-30.0286
-29.2049
-28.6792
-28.3757
-28.1748
-27.898
-27.2837
-25.954
-23.3751
-18.822
-11.3578
0.150335
16.963
40.3314
71.2901
110.391
157.415
211.108
269.01
327.429
381.611
426.11
455.354
464.321
449.26
408.331
342.064
253.55
148.315
33.8736
-80.9993
-187.186
-276.214
-341.195
-377.578
-383.629
-360.58
-312.424
-245.393
-167.199
-86.1307
-10.1295
54.0497
101.489
129.504
137.761
128.11
104.181
70.8112
33.3797
-2.85621
-33.3479
-54.7007
-64.937
-63.5652
-51.4643
-30.6182
-3.74789
26.1032
55.9733
83.3285
106.314
123.889
135.846
142.716
145.601
145.942
145.28
145.027
146.284
149.708
155.468
163.248
172.33
181.701
190.206
196.687
200.121
199.732
195.063
186.005
172.797
155.984
136.345
114.814
92.3888
70.0413
48.6441
28.9121
11.3653
-3.68624
-16.1368
-26.0623
-33.6849
-39.3289
-43.3748
-46.2138
-48.2089
-49.663
-50.7967
-51.7369
-52.5145
-53.0724
-53.2815
-52.9641
-51.922
-49.9674
-46.9536
-42.8022
-37.5239
-31.2297
-24.1323
-16.5353
-8.8112
-1.37139
5.37012
11.0347
15.3148
18.0023
19.0085
18.3701
16.2433
12.8861
8.62981
3.8448
-1.09578
-5.85069
-10.1392
-13.761
-16.6054
-18.6504
-19.9504
-20.6172
-20.7933
-20.6226
-20.2169
-19.6212
-18.7778
-17.4897
-15.3869
-11.9015
-6.26077
2.48955
15.418
33.5867
57.8768
88.7698
126.114
168.914
215.198
262.001
305.502
341.336
365.042
372.612
361.068
328.972
276.793
207.047
124.198
34.2809
-55.6809
-138.421
-207.228
-256.695
-283.324
-285.906
-265.627
-225.889
-171.87
-109.898
-46.7032
11.3426
58.9076
92.2248
109.403
110.497
97.3505
73.2346
42.3522
9.27279
-21.6256
-46.6401
-63.0987
-69.5556
-65.8177
-52.8162
-32.354
-6.77671
21.3839
49.7447
76.3428
99.8166
119.483
135.315
147.828
157.913
166.63
175.006
183.858
193.662
204.484
215.97
227.392
237.752
245.905
250.702
251.135
246.452
236.251
220.53
199.693
174.516
146.074
115.644
84.5897
54.2446
25.804
0.237965
-21.7688
-39.8438
-53.9209
-64.2047
-71.1116
-75.1956
-77.0698
-77.3316
-76.5025
-74.9857
-73.0472
-70.8183
-68.318
-65.4891
-62.2408
-58.4915
-54.2047
-49.4128
-44.2267
-38.8304
-33.4617
-28.3845
-23.8553
-20.091
-17.2412
-15.3694
-14.4455
-14.349
-14.8838
-15.8003
-16.8229
-17.6786
-18.1229
-17.959
-17.0471
-15.3014
-12.6714
-9.10834
-4.51745
1.30039
8.70833
18.2827
30.8345
47.3848
69.077
97.0167
132.043
174.452
223.711
278.22
335.18
390.62
439.626
476.76
496.662
494.736
467.854
414.945
337.389
239.11
126.363
7.18567
-109.394
-214.317
-299.491
-358.685
-388.214
-387.321
-358.197
-305.666
-236.555
-158.861
-80.8088
-9.93269
47.7138
88.125
109.633
112.903
100.652
77.1503
47.5774
17.3242
-8.66722
-26.4529
-33.4661
-28.6955
-12.661
12.7949
44.8539
80.1549
115.25
147.028
173.053
191.788
202.692
206.171
203.438
196.269
186.724
176.856
168.45
162.815
160.658
162.042
166.424
172.767
179.703
185.727
189.387
189.456
185.071
175.813
161.738
143.354
121.55
97.4917
72.4979
47.9106
24.9717
4.71988
-12.084
-24.9987
-33.9102
-39.0064
-40.7269
-39.6938
-36.6339
-32.3014
-27.4082
-22.5701
-18.2701
-14.842
-12.4718
-11.2138
-11.0175
-11.7597
-13.2767
-15.3934
-17.9453
-20.7935
-23.83
-26.9772
-30.181
-33.4012
-36.6003
-39.7328
-42.7359
-45.5191
-47.9528
-49.8511
-50.9486
-50.8682
-49.086
-44.899
-37.4096
-25.5442
-8.12284
16.0076
47.773
87.6188
135.234
189.3
247.324
305.614
359.433
403.352
431.795
439.703
423.243
380.464
311.776
220.187
111.208
-7.55768
-127.12
-238.025
-331.37
-399.79
-438.269
-444.693
-420.054
-368.287
-295.772
-210.564
-121.456
-36.9937
35.4333
90.3174
124.504
137.359
130.641
108.101
74.888
36.8408
-0.241919
-31.2626
-52.3447
-61.1616
-57.0516
-40.9264
-15.0014
17.6005
53.3128
88.594
120.343
146.217
164.822
175.772
179.609
177.629
171.628
163.613
155.519
148.972
145.098
144.438
146.921
151.935
158.45
165.182
170.781
174.006
173.876
169.776
161.518
149.332
133.828
115.901
96.6155
77.0866
58.3549
41.2869
26.5016
14.331
4.81607
-2.265
-7.34143
-10.9766
-13.7866
-16.3598
-19.1883
-22.6162
-26.81
-31.754
-37.2662
-43.0344
-48.6645
-53.7344
-57.8485
-60.6841
-62.0263
-61.7872
-60.0094
-56.8533
-52.5716
-47.4754
-41.8965
-36.1516
-30.5121
-25.1847
-20.3025
-15.9285
-12.0685
-8.69012
-5.74491
-3.18844
-0.995235
0.833894
2.27316
3.281
3.81525
3.85118
3.39883
2.5162
1.3154
-0.0399316
-1.34635
-2.3802
-2.92278
-2.78775
-1.847
-0.0515622
2.5555
5.83611
9.56491
13.4472
17.1453
20.3111
22.6209
23.809
23.696
22.2094
19.3927
15.4029
10.4958
5.00173
-0.706598
-6.24976
-11.2767
-15.4954
-18.6962
-20.7648
-21.6852
-21.5315
-20.4521
-18.647
-16.342
-13.7635
-11.1152
-8.56055
-6.21147
-4.12363
-2.29914
-0.694565
0.766656
2.17955
3.6425
5.2436
7.04965
9.09895
11.3981
13.9228
16.622
19.4249
22.2496
25.0126
27.6396
30.0772
32.306
34.3596
36.3489
38.4938
41.1605
44.8988
50.467
58.8298
71.1122
88.4922
112.028
142.424
179.761
223.233
270.944
319.83
365.736
403.711
428.475
435.045
419.431
379.304
314.521
227.421
122.817
7.66073
-109.59
-219.837
-314.325
-385.617
-428.436
-440.251
-421.541
-375.706
-308.627
-227.962
-142.244
-59.9203
11.5499
66.4479
101.297
115.079
109.149
86.8887
53.1518
13.5803
-26.1084
-60.7819
-86.4264
-100.499
-102.073
-91.7827
-71.5806
-44.37
-13.5553
17.4206
45.4968
68.3251
84.4797
93.5307
95.987
93.1276
86.7522
78.8921
71.5183
66.2853
64.3388
66.2052
71.7697
80.3372
90.7625
101.626
111.428
118.785
122.586
122.115
117.11
107.767
94.6943
78.8134
61.2432
43.1649
25.6955
9.77859
-3.89368
-14.9234
-23.212
-28.9315
-32.4678
-34.3466
-35.151
-35.4416
-35.6881
-36.2188
-37.1931
-38.5977
-40.2673
-41.9232
-43.2275
-43.8425
-43.4901
-41.9998
-39.3422
-35.6409
-31.1623
-26.2848
-21.4514
-17.113
-13.6694
-11.4177
-10.5136
-10.9515
-12.5656
-15.0512
-18.004
-20.9696
-23.4992
-25.2022
-25.7902
-25.1075
-23.144
-20.0309
-16.0192
-11.446
-6.69222
-2.13715
1.88332
5.11138
7.39026
8.67384
9.02265
8.58775
7.58558
6.26787
4.89161
3.69424
2.87933
2.61762
3.06634
4.40768
6.90256
10.9505
17.14
26.2695
39.3162
57.334
81.2729
111.728
148.65
191.062
236.855
282.722
324.291
356.469
373.991
372.117
347.373
298.221
225.545
132.848
26.096
-86.7724
-196.652
-294.265
-371.229
-421.037
-439.829
-426.839
-384.465
-317.953
-234.753
-143.617
-53.5863
27.0193
91.4823
135.329
156.677
156.253
137.114
104.111
63.1903
20.618
-17.7626
-47.1622
-64.2956
-67.6124
-57.3007
-35.0843
-3.85574
32.7922
71.072
107.477
139.174
164.264
181.908
192.299
196.507
196.226
193.474
190.27
188.351
188.95
192.659
199.392
208.435
218.586
228.335
236.082
240.349
239.96
234.177
222.773
206.032
184.701
159.885
132.909
105.177
78.0224
52.5958
29.7737
10.1136
-6.153
-19.0905
-29.0004
-36.3444
-41.6601
-45.4805
-48.2658
-50.3553
-51.9425
-53.0734
-53.668
-53.5577
-52.5346
-50.4041
-47.0333
-42.3896
-36.5639
-29.7759
-22.3619
-14.7462
-7.40089
-0.799156
4.63228
8.55552
10.7542
11.1528
9.821
6.96328
2.89461
-1.99335
-7.2724
-12.519
-17.3524
-21.4655
-24.645
-26.7815
-27.8656
-27.976
-27.2587
-25.9015
-24.1091
-22.0784
-19.9809
-17.9487
-16.0692
-14.3843
-12.8946
-11.5671
-10.3446
-9.15552
-7.92379
-6.57696
-5.05313
-3.30593
-1.30747
0.950487
3.45706
6.18417
9.08925
12.1184
15.2091
18.2925
21.2944
24.1349
26.7284
28.9841
30.809
32.1172
32.8484
32.9982
32.6614
32.0885
31.7453
32.3667
34.9838
40.9039
51.6226
68.654
93.2828
126.256
167.459
215.635
268.215
321.316
369.953
408.474
431.175
433.036
410.463
361.937
288.444
193.612
83.5094
-33.89
-149.506
-254.129
-339.433
-398.902
-428.543
-427.288
-397.054
-342.446
-270.163
-188.178
-104.816
-27.8409
36.3415
83.2694
110.748
118.886
109.869
87.5142
56.6708
22.5697
-9.81425
-36.3012
-53.8955
-60.9924
-57.3962
-44.1667
-23.3313
2.48684
30.471
57.9885
82.8995
103.765
119.937
131.539
139.336
144.541
148.575
152.821
158.407
166.038
175.898
187.63
200.389
212.955
223.893
231.734
235.155
233.135
225.078
210.871
190.904
166.018
137.418
106.545
74.9269
44.0377
15.1612
-10.7094
-32.9353
-51.2492
-65.7309
-76.743
-84.8422
-90.6761
-94.8826
-98.0055
-100.435
-102.379
-103.874
-104.813
-105.004
-104.231
-102.323
-99.197
-94.8984
-89.6055
-83.6178
-77.3227
-71.1476
-65.5069
-60.7498
-57.1171
-54.7117
-53.486
-53.2454
-53.6648
-54.3139
-54.6833
-54.2055
-52.2659
-48.2034
-41.3048
-30.8033
-15.8973
4.19602
30.1358
62.3004
100.588
144.201
191.465
239.725
285.376
324.062
351.05
361.748
352.321
320.313
265.164
188.554
94.4761
-10.9884
-120.183
-224.628
-315.923
-386.67
-431.311
-446.749
-432.692
-391.652
-328.621
-250.464
-165.117
-80.6834
-4.56064
57.3103
100.985
124.792
129.33
117.208
92.5682
60.4843
26.2951
-5.02651
-29.4038
-44.0307
-47.5603
-40.103
-23.0525
1.22163
29.7648
59.4561
87.4014
111.256
129.447
141.274
146.895
147.211
143.664
137.999
132.008
127.293
125.076
126.079
130.462
137.849
147.399
157.936
168.104
176.521
181.936
183.348
180.096
171.903
158.878
141.484
120.468
96.7797
71.4739
45.6212
20.2258
-3.83584
-25.855
-45.3076
-61.8513
-75.3073
-85.6337
-92.8958
-97.2393
-98.8698
-98.0386
-95.0353
-90.1845
-83.843
-76.3951
-68.2432
-59.7936
-51.4367
-43.5255
-36.353
-30.1332
-24.989
-20.9477
-17.9465
-15.8465
-14.4541
-13.5473
-12.9025
-12.319
-11.6393
-10.7609
-9.64092
-8.29149
-6.76739
-5.14618
-3.501
-1.86593
-0.194027
1.6906
4.14185
7.73261
13.2731
21.7887
34.4381
52.3626
76.4643
107.135
143.977
185.562
229.308
271.51
307.574
332.448
341.218
329.796
295.599
238.097
159.158
63.0837
-43.6756
-153.106
-256.457
-345.2
-411.992
-451.508
-461.053
-440.838
-393.926
-325.833
-243.852
-156.197
-71.0684
4.22798
64.0171
104.754
125.247
126.59
111.838
85.4813
52.7978
19.1713
-10.5363
-32.4904
-44.2146
-44.7251
-34.4704
-15.1042
10.8623
40.4738
70.7496
99.056
123.389
142.545
156.16
164.647
169.027
170.703
171.21
171.974
174.102
178.249
184.543
192.601
201.601
210.41
217.754
222.382
223.23
219.554
211.013
197.705
180.148
159.218
136.047
111.897
88.033
65.5971
45.5092
28.3953
14.5542
3.96097
-3.69493
-8.94474
-12.4575
-14.9504
-17.1022
-19.4802
-22.4859
-26.3246
-31.0003
-36.3321
-41.9911
-47.5502
-52.5411
-56.5126
-59.0839
-59.9874
-59.0982
-56.4472
-52.2177
-46.7266
-40.3917
-33.6911
-27.1157
-21.1227
-16.0922
-12.2926
-9.8573
-8.77494
-8.89482
-9.9463
-11.5708
-13.3627
-14.9148
-15.8634
-15.9272
-14.9371
-12.8512
-9.75664
-5.85522
-1.43744
3.15285
7.55822
11.447
14.5474
16.6732
17.7377
17.7554
16.8328
15.1484
12.9276
10.4137
7.83986
5.40538
3.25815
1.48518
0.112129
-0.887987
-1.57652
-2.02072
-2.25455
-2.22882
-1.75292
-0.434595
2.3705
7.58164
16.3672
30.0496
49.9298
77.0343
111.81
153.813
201.457
251.889
301.044
343.928
375.103
389.346
382.382
351.591
296.569
219.434
124.82
19.5319
-88.1178
-189.193
-275.136
-338.752
-375.034
-381.73
-359.572
-312.137
-245.38
-166.889
-84.9838
-7.75185
57.8271
106.589
135.633
144.484
134.948
110.723
76.8114
38.8284
2.29801
-27.9793
-48.4147
-56.9288
-53.0403
-37.7535
-13.2775
17.372
50.8266
83.815
113.55
138.013
156.107
167.679
173.412
174.626
173.017
170.372
168.307
168.054
170.321
175.234
182.369
190.845
199.474
206.942
211.981
213.535
210.868
203.643
191.928
176.164
157.089
135.635
112.815
89.6103
66.8851
45.316
25.3615
7.2599
-8.94444
-23.3546
-36.1632
-47.5939
-57.8483
-67.0682
-75.3137
-82.5606
-88.7135
-93.6316
-97.1614
-99.1695
-99.5723
-98.3552
-95.5815
-91.3888
-85.9764
-79.5847
-72.472
-64.8924
-57.0775
-49.2247
-41.4919
-33.9995
-26.8369
-20.0714
-13.7588
-7.95137
-2.70335
1.92708
5.87988
9.098
11.5341
13.1577
13.9615
13.9655
13.2186
11.797
9.80042
7.34555
4.55883
1.56869
-1.50119
-4.53675
-7.43591
-10.1083
-12.4724
-14.4515
-15.9678
-16.9365
-17.2571
-16.8022
-15.399
-12.8039
-8.66923
-2.50739
6.33647
18.6872
35.4989
57.7533
86.2905
121.58
163.454
210.863
261.685
312.68
359.606
397.543
421.391
426.501
409.36
368.207
303.499
218.12
117.284
8.12699
-100.983
-201.328
-284.798
-344.811
-377.047
-379.932
-354.772
-305.558
-238.447
-161.006
-81.3227
-7.08449
55.2413
101.042
127.937
135.868
126.91
104.844
74.5659
41.4078
10.4739
-13.94
-28.7733
-32.4361
-24.844
-7.26559
17.979
47.9163
79.3553
109.302
135.302
155.68
169.652
177.311
179.508
177.641
173.406
168.531
164.535
162.539
163.143
166.389
171.789
178.427
185.104
190.508
193.388
192.711
187.779
178.306
164.438
146.732
126.081
103.617
80.5919
58.2497
37.7154
19.8973
5.41978
-5.41043
-12.6051
-16.4634
-17.5156
-16.4486
-14.0236
-10.9933
-8.02983
-5.66787
-4.26888
-4.00816
-4.88377
-6.74432
-9.33061
-12.325
-15.4021
-18.2745
-20.7295
-22.6517
-24.0323
-24.9627
-25.6153
-26.2148
-27.0036
-28.2055
-29.9933
-32.4637
-35.6223
-39.3809
-43.566
-47.9376
-52.2164
-56.1132
-59.3602
-61.7376
-63.094
-63.3577
-62.5391
-60.7226
-58.0508
-54.7034
-50.8723
-46.7382
-42.4506
-38.1131
-33.7782
-29.4489
-25.0884
-20.6363
-16.0268
-11.209
-6.16379
-0.916826
4.45452
9.82111
15.0091
19.8144
24.0241
27.4475
29.9543
31.5237
32.2988
32.6438
33.1923
34.8731
38.8945
46.6706
59.6744
79.2182
106.174
140.669
181.807
227.479
274.319
317.857
352.875
373.963
376.19
355.831
311.015
242.206
152.413
47.0863
-66.3182
-179.058
-282.025
-366.752
-426.366
-456.371
-455.144
-424.096
-367.467
-291.792
-205.117
-116.068
-32.8871
37.429
89.808
121.51
132.241
123.976
100.535
66.9784
28.918
-8.17843
-39.5928
-61.8151
-72.81
-72.0807
-60.5412
-40.2344
-13.9466
15.222
44.2736
70.6652
92.5601
108.96
119.711
125.406
127.195
126.551
125.014
123.966
124.439
127.002
131.72
138.182
145.597
152.934
159.074
162.976
163.805
161.036
154.505
144.413
131.288
115.904
99.1892
82.1142
65.59
50.3818
37.0458
25.8966
17.0031
10.2127
5.19695
1.51122
-1.33914
-3.83509
-6.38916
-9.30546
-12.7572
-16.7829
-21.2988
-26.1261
-31.0253
-35.7359
-40.0126
-43.6561
-46.534
-48.5899
-49.841
-50.3657
-50.2843
-49.7357
-48.8545
-47.7516
-46.5009
-45.1336
-43.6396
-41.976
-40.0801
-37.8851
-35.3354
-32.4006
-29.0849
-25.432
-21.5248
-17.4795
-13.4357
-9.54356
-5.94927
-2.78144
-0.139219
1.91607
3.36497
4.2295
4.56852
4.46976
4.0397
3.39267
2.64069
1.88519
1.21216
0.691979
0.385617
0.358915
0.706697
1.58738
3.26671
6.16562
10.9023
18.313
29.4331
45.4181
67.3928
96.2282
132.264
175.02
222.943
273.273
322.068
364.434
394.974
408.404
400.274
367.693
309.926
228.77
128.628
16.2318
-99.9603
-210.626
-306.596
-379.889
-424.623
-437.689
-419.089
-371.902
-301.886
-216.781
-125.391
-36.5887
41.647
103.039
143.58
161.795
158.705
137.498
102.978
60.8787
17.1215
-22.8692
-54.7306
-75.5418
-83.9912
-80.3325
-66.1562
-44.0242
-17.0271
11.6696
39.2326
63.4749
83.0449
97.4833
107.153
113.066
116.649
119.468
122.974
128.287
136.043
146.321
158.653
172.102
185.398
197.109
205.822
210.316
209.702
203.519
191.78
174.954
153.918
129.843
104.076
78.003
52.91
29.8775
9.69584
-7.1776
-20.6225
-30.8223
-38.2015
-43.3424
-46.893
-49.479
-51.6273
-53.711
-55.9195
-58.2545
-60.5521
-62.5235
-63.8109
-64.0488
-62.9243
-60.2282
-55.891
-50.0012
-42.8029
-34.6751
-26.0945
-17.5889
-9.68404
-2.85363
2.52502
6.2029
8.07699
8.1924
6.72967
3.97979
0.310519
-3.8717
-8.15982
-12.1804
-15.6208
-18.2477
-19.9157
-20.5676
-20.226
-18.9796
-16.9657
-14.3513
-11.3141
-8.02623
-4.64107
-1.2843
1.9506
5.00267
7.84001
10.4537
12.8504
15.0441
17.0498
18.8778
20.5312
22.0053
23.2887
24.3661
25.221
25.8383
26.206
26.3154
26.1604
25.7366
25.0398
24.0656
22.8093
21.2675
19.4406
17.3356
14.9692
12.3697
9.57766
6.6447
3.63068
0.599081
-2.38849
-5.27798
-8.02793
-10.6132
-13.0268
-15.2788
-17.3935
-19.4037
-21.3438
-23.2414
-25.1089
-26.9373
-28.6912
-30.3074
-31.6983
-32.7583
-33.375
-33.4419
-32.8712
-31.6041
-29.6129
-26.8932
-23.441
-19.2129
-14.0724
-7.72552
0.338955
10.8893
24.9478
43.7242
68.4709
100.259
139.691
186.586
239.699
296.525
353.268
405.009
446.091
470.708
473.627
450.959
400.852
324
223.867
106.562
-19.645
-145.11
-259.831
-354.544
-421.768
-456.647
-457.488
-425.918
-366.644
-286.864
-195.392
-101.634
-14.5384
58.3503
111.625
142.455
150.702
138.715
110.854
72.8196
30.8781
-8.90738
-41.3578
-62.6903
-70.8186
-65.4216
-47.7959
-20.5284
12.9538
48.8899
83.6801
114.311
138.661
155.672
165.356
168.678
167.327
163.409
159.125
156.46
156.929
161.402
170.028
182.248
196.903
212.402
226.932
238.685
246.059
247.833
243.285
232.243
215.078
192.64
166.146
137.041
106.846
77.0171
48.8178
23.2306
0.905051
-17.8523
-33.0495
-44.9506
-53.9962
-60.7154
-65.6401
-69.2327
-71.8337
-73.6345
-74.6765
-74.8735
-74.053
-72.0091
-68.5587
-63.5924
-57.1142
-49.2627
-40.3138
-30.6627
-20.7901
-11.2161
-2.44978
5.06053
10.9685
15.0592
17.2625
17.6511
16.4233
13.8741
10.3586
6.25314
1.91702
-2.33879
-6.2748
-9.73481
-12.6454
-15.0022
-16.8424
-18.2036
-19.0702
-19.3108
-18.6124
-16.4245
-11.9268
-4.0416
8.49161
26.9653
52.4768
85.6411
126.283
173.165
223.812
274.51
320.501
356.401
376.81
377.033
353.812
305.954
234.743
144.045
40.0775
-69.1616
-174.719
-267.676
-340.165
-386.273
-402.714
-389.181
-348.337
-285.453
-207.742
-123.489
-41.0934
31.8644
89.4065
127.713
145.39
143.438
124.949
94.5701
57.8435
20.4835
-12.299
-36.3565
-48.9875
-49.1133
-37.2448
-15.2623
13.9478
46.942
80.1916
110.518
135.441
153.41
163.891
167.331
164.994
158.725
150.658
142.918
137.358
135.345
137.63
144.292
154.773
167.974
182.407
196.378
208.172
216.232
219.31
216.568
207.643
192.656
172.18
147.169
118.863
88.6703
58.0498
28.3995
0.956801
-23.2774
-43.5878
-59.5655
-71.102
-78.3601
-81.7279
-81.7619
-79.1274
-74.5402
-68.715
-62.322
-55.953
-50.096
-45.1183
-41.2567
-38.6149
-37.1679
-36.773
-37.1884
-38.0982
-39.1433
-39.9557
-40.1945
-39.58
-37.9222
-35.1416
-31.2791
-26.4933
-21.0467
-15.28
-9.5784
-4.33107
0.110959
3.47753
5.61941
6.5444
6.44847
5.74075
5.06017
5.27961
7.49038
12.9571
23.0317
39.017
61.9762
92.4979
130.44
174.695
223.025
272.031
317.29
353.689
375.942
379.233
359.916
316.152
248.385
159.567
55.0686
-57.732
-170.15
-273.096
-358.075
-418.14
-448.679
-447.934
-417.179
-360.537
-284.469
-197.003
-106.805
-22.217
49.6309
103.513
136.546
148.327
140.781
117.743
84.359
46.3844
9.46981
-21.4742
-42.7655
-52.2471
-49.3726
-35.0912
-11.5652
18.2286
50.9533
83.3596
112.673
136.877
154.868
166.481
172.384
173.884
172.671
170.531
169.09
169.591
172.755
178.712
187.025
196.779
206.731
215.48
221.655
224.075
221.883
214.622
202.27
185.213
164.188
140.19
114.364
87.8947
61.9085
37.391
15.13
-4.31544
-20.6214
-33.6841
-43.5896
-50.5724
-54.9708
-57.1821
-57.6239
-56.702
-54.788
-52.2057
-49.2257
-46.0663
-42.8987
-39.8544
-37.0327
-34.5074
-32.3311
-30.5384
-29.1469
-28.157
-27.5527
-27.3017
-27.3576
-27.6627
-28.1516
-28.7548
-29.4016
-30.0217
-30.5452
-30.9012
-31.0156
-30.8098
-30.1998
-29.0989
-27.4217
-25.0923
-22.0536
-18.2781
-13.7781
-8.61326
-2.89508
3.21362
9.50436
15.7335
21.6367
26.9465
31.4106
34.8105
36.9782
37.8096
37.2744
35.4205
32.3729
28.3275
23.5384
18.3012
12.9328
7.74844
3.03912
-0.950273
-4.03926
-6.12563
-7.19356
-7.31506
-6.64429
-5.40474
-3.87001
-2.33918
-1.10884
-0.444107
-0.55125
-1.55459
-3.48014
-6.24767
-9.67254
-13.4775
-17.3143
-20.793
-23.5181
-25.1267
-25.3269
-23.9309
-20.8797
-16.2564
-10.2855
-3.31707
4.20354
11.779
18.9145
25.1814
30.2852
34.136
36.9141
39.1225
41.6154
45.5871
52.5065
63.9845
81.5687
106.474
139.272
179.587
225.848
275.164
323.382
365.343
395.367
407.891
398.214
363.234
302.054
216.366
110.525
-8.71893
-132.813
-252.256
-357.6
-440.492
-494.588
-516.25
-504.921
-463.142
-396.205
-311.507
-217.683
-123.634
-37.5719
33.8052
85.9146
116.613
126.218
117.253
93.9532
61.6268
25.9443
-7.74482
-34.9925
-52.669
-59.1811
-54.4837
-39.9046
-17.8186
8.77055
36.6833
62.9902
85.3606
102.296
113.233
118.507
119.204
116.923
113.494
110.683
109.939
112.197
117.773
126.347
137.036
148.535
159.315
167.825
172.697
172.908
167.896
157.603
142.461
123.317
101.314
77.7515
53.9321
31.031
9.98792
-8.55904
-24.2968
-37.2179
-47.5659
-55.7557
-62.2825
-67.6328
-72.2099
-76.2819
-79.9595
-83.2006
-85.8412
-87.6435
-88.3523
-87.7513
-85.71
-82.2154
-77.3842
-71.4565
-64.7723
-57.7362
-50.7757
-44.2984
-38.6533
-34.097
-30.766
-28.6529
-27.5831
-27.194
-26.9166
-25.9678
-23.3634
-17.9663
-8.57953
5.90848
26.3323
53.0309
85.6345
122.9
162.644
201.802
236.649
263.158
277.483
276.479
258.209
222.338
170.343
105.499
32.6203
-42.4111
-113.287
-173.983
-219.45
-246.194
-252.663
-239.389
-208.881
-165.281
-113.83
-60.2316
-9.98804
32.2093
62.9533
80.4165
84.4388
76.4129
58.9936
35.6816
10.3393
-13.294
-32.0306
-43.5581
-46.627
-41.0927
-27.8185
-8.46493
14.7986
39.6149
63.7505
85.3579
103.16
116.54
125.538
130.754
133.195
134.08
134.633
135.898
138.602
143.067
149.189
156.476
164.137
171.2
176.655
179.575
179.234
175.176
167.258
155.643
140.769
123.278
103.951
83.6155
63.0839
43.0885
24.2443
7.02847
-8.22082
-21.2929
-32.0839
-40.5728
-46.7997
-50.8478
-52.8336
-52.9017
-51.2258
-48.0114
-43.4991
-37.9651
-31.7179
-25.0896
-18.4232
-12.0557
-6.29946
-1.42363
2.36259
4.92252
6.19923
6.21672
5.07473
2.93788
0.0202338
-3.43251
-7.16049
-10.903
-14.4038
-17.4037
-19.6196
-20.7097
-20.2315
-17.6041
-12.0906
-2.82052
11.1325
30.6091
56.1632
87.8267
124.877
165.661
207.53
246.929
279.66
301.31
307.804
295.999
264.236
212.746
143.848
61.8647
-27.2252
-116.379
-198.248
-265.996
-314.082
-338.885
-339.098
-315.846
-272.508
-214.278
-147.529
-79.064
-15.3513
38.1616
77.5755
100.855
107.905
100.423
81.5461
55.3657
26.3728
-1.09717
-23.3488
-37.69
-42.6424
-37.9863
-24.6513
-4.4799
20.0945
46.4069
71.9109
94.4753
112.598
125.516
133.215
136.335
136.012
133.663
130.765
128.638
128.276
130.235
134.58
140.916
148.459
156.172
162.904
167.556
169.214
167.258
161.43
151.844
138.958
123.504
106.381
88.5453
70.897
54.1822
38.9263
25.4012
13.6293
3.42068
-5.56475
-13.7408
-21.5166
-29.2266
-37.0798
-45.131
-53.2786
-61.2852
-68.8166
-75.4922
-80.939
-84.8414
-86.9807
-87.2612
-85.7192
-82.5169
-77.9227
-72.2806
-65.9749
-59.393
-52.8909
-46.7666
-41.2404
-36.447
-32.4361
-29.1819
-26.5985
-24.5595
-22.9176
-21.5235
-20.2403
-18.9549
-17.583
-16.0705
-14.3907
-12.5396
-10.5286
-8.37778
-6.10871
-3.73842
-1.27378
1.29372
3.99379
6.88507
10.0662
13.6918
17.9939
23.3077
30.0967
38.9702
50.6778
66.0686
85.9985
111.178
141.968
178.134
218.617
261.355
303.22
340.123
367.308
379.827
373.159
343.881
290.306
212.973
114.889
1.48077
-119.789
-240.092
-350.121
-441.096
-505.733
-539.073
-539.047
-506.701
-446.063
-363.658
-267.756
-167.428
-71.5586
12.0864
77.6112
121.487
142.748
142.878
125.432
95.446
58.7291
21.1324
-12.1192
-36.9561
-50.8026
-52.7041
-43.2468
-24.3012
1.36158
30.5208
59.9623
86.8818
109.193
125.709
136.192
141.275
142.279
140.959
139.223
138.849
141.245
147.278
157.177
170.524
186.321
203.127
219.229
232.843
242.305
246.242
243.702
234.232
217.907
195.305
167.438
135.647
101.483
66.5685
32.47
0.583552
-27.9555
-52.3314
-72.0739
-87.0521
-97.4393
-103.657
-106.305
-106.086
-103.731
-99.9364
-95.3157
-90.3626
-85.4365
-80.7623
-76.4445
-72.4912
-68.8442
-65.4098
-62.0875
-58.7923
-55.469
-52.098
-48.6924
-45.2897
-41.939
-38.6873
-35.5664
-32.581
-29.6963
-26.8224
-23.792
-20.3283
-16.0051
-10.2065
-2.09923
9.36142
25.3716
47.1475
75.7197
111.667
154.827
204.036
256.963
310.099
358.938
398.362
423.203
428.914
412.252
371.873
308.72
226.151
129.735
26.7546
-74.5514
-165.895
-239.883
-290.858
-315.54
-313.363
-286.478
-239.427
-178.534
-111.102
-44.5309
14.5328
60.9072
91.3625
104.841
102.398
86.8896
62.4677
33.9603
6.22201
-16.4599
-30.8348
-34.9858
-28.4337
-12.0516
12.1807
41.5362
72.9578
103.475
130.565
152.421
168.101
177.544
181.475
181.216
178.431
174.857
172.046
171.151
172.793
177.001
183.238
190.504
197.488
202.756
204.943
202.928
195.963
183.764
166.522
144.883
119.854
92.6989
64.797
37.5147
12.0841
-10.4889
-29.4848
-44.4943
-55.4086
-62.3832
-65.781
-66.1075
-63.9436
-59.8859
-54.4995
-48.2845
-41.6591
-34.9544
-28.421
-22.2403
-16.54
-11.4081
-6.9044
-3.06806
0.078362
2.52848
4.29325
5.40255
5.90563
5.86937
5.37377
4.5047
3.34465
1.96261
0.404679
-1.31304
-3.2077
-5.3281
-7.74761
-10.5518
-13.8218
-17.6149
-21.946
-26.7708
-31.9762
-37.378
-42.7278
-47.7296
-52.0637
-55.415
-57.5041
-58.1152
-57.1201
-54.4932
-50.3175
-44.7802
-38.1565
-30.7844
-23.0283
-15.2337
-7.67237
-0.480799
6.40502
13.311
20.8706
30.0399
42.0621
58.368
80.4005
109.368
145.951
189.993
240.242
294.201
348.134
397.273
436.235
459.604
462.622
441.889
395.966
325.782
234.758
128.622
14.9074
-97.7933
-200.743
-286.012
-347.346
-380.838
-385.313
-362.394
-316.227
-252.938
-179.87
-104.731
-34.7334
24.1443
67.7112
93.8715
102.668
96.0762
77.5967
51.7072
23.2539
-3.14042
-23.5851
-35.2934
-36.7887
-27.9364
-9.81637
15.5334
45.4575
77.0594
107.565
134.632
156.574
172.479
182.228
186.411
186.17
182.989
178.471
174.123
171.167
170.418
172.21
176.396
182.396
189.293
195.964
201.216
203.922
203.141
198.212
188.814
174.987
157.128
135.943
112.388
87.5761
62.6895
38.8799
17.1793
-1.57498
-16.7966
-28.1813
-35.7129
-39.6436
-40.4518
-38.7827
-35.3779
-31.0012
-26.3687
-22.0891
-18.6202
-16.2447
-15.0667
-15.0268
-15.9335
-17.5061
-19.4218
-21.3629
-23.0572
-24.3086
-25.0142
-25.1674
-24.8486
-24.2046
-23.4214
-22.693
-22.1916
-22.0415
-22.3004
-22.9498
-23.8954
-24.9762
-25.9825
-26.6801
-26.8367
-26.2498
-24.7707
-22.3234
-18.9155
-14.6402
-9.66873
-4.23477
1.38804
6.91238
12.0643
16.6083
20.3668
23.2333
25.1775
26.2423
26.5342
26.2076
25.4451
24.4364
23.355
22.3381
21.4694
20.7695
20.1957
19.6559
19.039
18.263
17.3414
16.4596
16.0526
16.865
19.9706
26.7285
38.6555
57.2082
83.4877
117.9
159.831
207.4
257.374
305.277
345.741
373.065
381.924
368.144
329.413
265.811
180.074
77.5052
-34.4443
-146.917
-250.594
-336.74
-398.198
-430.2
-430.899
-401.54
-346.268
-271.592
-185.597
-96.9934
-14.1446
55.8216
107.705
138.659
148.323
138.651
113.492
77.9896
37.8784
-1.21824
-34.4126
-58.0286
-69.8869
-69.3839
-57.376
-35.9037
-7.80674
23.71
55.5024
84.8525
109.735
128.965
142.224
149.972
153.279
153.594
152.506
151.505
151.794
154.151
158.867
165.743
174.152
183.141
191.565
198.23
202.024
202.043
197.667
188.624
174.998
157.218
136.008
112.316
87.2315
61.8929
37.3968
14.7178
-5.35624
-22.2693
-35.7185
-45.6527
-52.2478
-55.866
-57.0003
-56.2141
-54.0811
-51.132
-47.8134
-44.4619
-41.2943
-38.4147
-35.8328
-33.4918
-31.3005
-29.1633
-27.0062
-24.794
-22.5375
-20.2916
-18.1444
-16.2011
-14.5646
-13.317
-12.5046
-12.128
-12.1393
-12.446
-12.92
-13.4105
-13.758
-13.8059
-13.4063
-12.4182
-10.6938
-8.05186
-4.24074
1.10768
8.52312
18.7294
32.6477
51.3529
75.9668
107.48
146.513
193.026
246.05
303.458
361.872
416.745
462.654
493.796
504.661
490.774
449.434
380.298
285.726
170.807
43.019
-88.427
-213.513
-322.479
-406.888
-460.565
-480.27
-466.024
-421.054
-351.368
-265.013
-171.135
-78.9421
3.27751
68.985
113.967
136.607
137.844
120.84
90.4223
52.3849
12.7373
-22.9962
-50.3549
-66.338
-69.5888
-60.366
-40.3261
-12.1634
20.8355
55.2585
87.9981
116.595
139.46
155.971
166.42
171.871
173.912
174.382
175.081
177.514
182.694
191.027
202.277
215.619
229.766
243.135
254.057
260.968
262.6
258.11
247.171
229.993
207.289
180.188
150.112
118.63
87.3015
57.5466
30.5284
7.08049
-12.3284
-27.5882
-38.9061
-46.7384
-51.705
-54.4995
-55.8022
-56.209
-56.1784
-56.0031
-55.8058
-55.5568
-55.1098
-54.2483
-52.7377
-50.3743
-47.0258
-42.6584
-37.3492
-31.2807
-24.7221
-17.999
-11.4564
-5.42061
-0.164029
4.12136
7.34047
9.49893
10.6948
11.0998
10.9329
10.4294
9.81118
9.25899
8.89307
8.76167
8.83956
9.03564
9.20852
9.18751
8.7967
7.879
6.31763
4.05265
1.09079
-2.49245
-6.55841
-10.9181
-15.3502
-19.623
-23.5164
-26.842
-29.4601
-31.2891
-32.31
-32.5626
-32.1366
-31.1575
-29.77
-28.1201
-26.3388
-24.5284
-22.753
-21.0352
-19.3572
-17.6684
-15.8967
-13.9626
-11.7946
-9.34317
-6.59129
-3.56106
-0.314015
3.05442
6.42686
9.6818
12.7169
15.4773
17.9875
20.3868
22.9651
26.1959
30.7608
37.5561
47.6698
62.3182
82.7296
109.973
144.736
187.076
236.179
290.169
346.026
399.655
446.137
480.148
496.538
490.987
460.647
404.691
324.653
224.502
110.412
-9.76369
-127.251
-233.263
-319.937
-381.18
-413.311
-415.428
-389.44
-339.788
-272.877
-196.306
-118.001
-45.3534
15.5387
60.4278
87.2306
96.0708
89.0649
69.8951
43.236
14.1138
-12.7188
-33.3184
-44.9405
-46.2468
-37.3224
-19.5158
4.8609
32.9229
61.636
88.2171
110.462
126.966
137.22
141.58
141.127
137.442
132.343
127.609
124.734
124.741
128.073
134.566
143.505
153.75
163.896
172.474
178.129
179.781
176.74
168.767
156.073
139.279
119.319
97.3351
74.5481
52.1404
31.1537
12.4131
-3.51941
-16.3594
-26.0875
-32.9125
-37.2193
-39.5071
-40.3263
-40.2194
-39.6726
-39.0795
-38.7203
-38.755
-39.2303
-40.0976
-41.2372
-42.4881
-43.6756
-44.6369
-45.2377
-45.3783
-44.9856
-43.9903
-42.2885
-39.6941
-35.8868
-30.3716
-22.4626
-11.3108
4.01035
24.3565
50.3069
81.9272
118.543
158.571
199.47
237.845
269.719
290.969
297.866
287.643
259.002
212.469
150.524
77.468
-0.966682
-78.2204
-147.643
-203.263
-240.486
-256.617
-251.155
-225.8
-184.208
-131.5
-73.6289
-16.6678
33.8767
73.6421
99.8149
111.323
108.809
94.3981
71.3136
43.3946
14.5851
-11.5383
-32.1457
-45.4003
-50.555
-47.8999
-38.5844
-24.3487
-7.21092
10.844
28.1312
43.4561
56.2108
66.3717
74.4108
81.1415
87.529
94.4959
102.752
112.672
124.234
137.02
150.278
163.031
174.202
182.759
187.837
188.834
185.474
177.821
166.256
151.426
134.165
115.404
96.0829
77.0759
59.125
42.8018
28.4873
16.3727
6.47622
-1.32754
-7.27206
-11.6603
-14.8285
-17.1136
-18.8286
-20.2437
-21.576
-22.9849
-24.573
-26.3903
-28.4412
-30.6916
-33.0766
-35.5069
-37.875
-40.0606
-41.9364
-43.3734
-44.2488
-44.4528
-43.8985
-42.5295
-40.3291
-37.3253
-33.5945
-29.2592
-24.4832
-19.4604
-14.4015
-9.51781
-5.00469
-1.02628
2.29654
4.89379
6.74878
7.89519
8.40927
8.3984
7.98733
7.30414
6.46778
5.5799
4.72362
3.97263
3.41367
3.18425
3.5244
4.83672
7.74265
13.1165
22.0752
35.9016
55.8886
83.1039
118.098
160.599
209.25
261.458
313.418
360.337
396.868
417.716
418.346
395.672
348.651
278.639
189.466
87.1842
-20.4891
-124.976
-217.778
-291.429
-340.339
-361.408
-354.341
-321.618
-268.134
-200.57
-126.573
-53.8603
10.6331
61.473
95.2177
110.645
108.704
92.2094
65.3516
33.0776
0.443113
-27.9885
-48.6313
-59.1952
-58.8168
-48.0032
-28.4147
-2.53103
26.7478
56.5063
84.1747
107.804
126.228
139.11
146.87
150.526
151.471
151.224
151.196
152.487
155.75
161.13
168.27
176.4
184.459
191.262
195.667
196.725
193.8
186.64
175.388
160.554
142.933
123.498
103.282
83.2625
64.2635
46.8896
31.4957
18.1919
6.8796
-2.68958
-10.8437
-17.9199
-24.2033
-29.8836
-35.0327
-39.605
-43.4572
-46.3834
-48.1582
-48.5807
-47.5131
-44.909
-40.8257
-35.4237
-28.9501
-21.713
-14.0489
-6.28975
1.26621
8.37638
14.8651
20.6243
25.6042
29.7967
33.2137
35.8656
37.7428
38.8039
38.9722
38.1414
36.1912
33.0089
28.5152
22.6913
15.6015
7.40894
-1.61889
-11.1168
-20.6414
-29.7016
-37.7982
-44.4674
-49.3243
-52.1006
-52.6726
-51.0751
-47.501
-42.2857
-35.8784
-28.8038
-21.6179
-14.8631
-9.02519
-4.49734
-1.5524
-0.325548
-0.807704
-2.84934
-6.17371
-10.398
-15.0608
-19.6534
-23.6546
-26.5655
-27.944
-27.4367
-24.8062
-19.9532
-12.9306
-3.94861
6.62973
18.3062
30.4781
42.4837
53.6649
63.4439
71.4138
77.4336
81.7176
84.9022
88.0686
92.7009
100.561
113.473
133.027
160.23
195.152
236.637
282.144
327.776
368.534
398.799
412.993
406.338
375.612
319.774
240.351
141.51
29.779
-86.5571
-198.328
-296.492
-373.162
-422.503
-441.385
-429.703
-390.323
-328.676
-252.061
-168.749
-87.0188
-14.2453
43.8533
83.718
104.16
106.276
93.0946
69.0318
39.2224
8.83478
-17.5519
-36.4358
-45.6975
-44.7036
-34.2153
-16.1335
6.87188
31.79
55.6948
76.1159
91.3127
100.426
103.501
101.388
95.5516
87.8107
80.059
73.9981
70.9177
71.5462
75.9856
83.7319
93.7715
104.736
115.093
123.343
128.204
128.753
124.524
115.534
102.265
85.5757
66.5934
46.5724
26.7545
8.24208
-8.09993
-21.7057
-32.3292
-40.0258
-45.1018
-48.0422
-49.4274
-49.8526
-49.8585
-49.8807
-50.2222
-51.0488
-52.4029
-54.232
-56.4235
-58.8409
-61.3538
-63.8593
-66.2922
-68.624
-70.8532
-72.989
-75.0323
-76.9565
-78.6906
-80.1041
-80.994
-81.0722
-79.9509
-77.1278
-71.9737
-63.7299
-51.5273
-34.4399
-11.5869
17.7131
53.7409
96.1523
143.768
194.432
244.983
291.389
329.058
353.308
359.948
345.897
309.739
252.12
175.906
86.0646
-10.7433
-106.817
-194.232
-265.721
-315.491
-339.877
-337.744
-310.577
-262.271
-198.632
-126.676
-53.8126
12.986
67.9155
106.899
127.908
131.029
118.276
93.1988
60.3409
24.6311
-9.21533
-37.2143
-56.4929
-65.4987
-64.0293
-53.0955
-34.6524
-11.2457
14.3748
39.6214
62.3718
81.177
95.3594
104.999
110.823
114.021
116.018
118.239
121.897
127.821
136.353
147.313
160.033
173.451
186.245
196.996
204.356
207.193
204.718
196.562
182.806
163.966
140.929
114.867
87.1145
59.05
31.9789
7.03327
-14.9014
-33.2282
-47.6488
-58.1432
-64.9277
-68.3959
-69.0551
-67.4633
-64.1753
-59.7011
-54.4792
-48.8641
-43.1262
-37.4617
-32.0084
-26.8641
-22.1055
-17.8039
-14.0369
-10.8944
-8.47873
-6.89926
-6.26078
-6.64796
-8.10603
-10.6186
-14.0837
-18.287
-22.8754
-27.3297
-30.9437
-32.815
-31.8604
-26.8683
-16.6023
0.0383625
23.8028
54.8397
92.45
134.894
179.306
221.778
257.616
281.801
289.585
277.164
242.325
184.959
107.346
14.1409
-87.9578
-190.835
-285.81
-364.604
-420.288
-448.095
-445.977
-414.835
-358.396
-282.756
-195.655
-105.575
-20.7899
51.5207
105.989
139.529
151.507
143.635
119.586
84.4239
43.9192
3.83689
-30.7092
-55.7693
-68.8883
-69.2315
-57.5086
-35.7252
-6.80588
25.8524
58.8378
89.1345
114.443
133.38
145.541
151.442
152.343
150.001
146.379
143.36
142.492
144.8
150.683
159.889
171.588
184.507
197.107
207.79
215.093
217.862
215.366
207.371
194.138
176.374
155.138
131.713
107.471
83.7357
61.6712
42.1909
25.907
13.1126
3.79763
-2.3091
-5.67964
-6.91736
-6.68671
-5.64952
-4.41254
-3.48911
-3.27525
-4.03895
-5.92025
-8.93936
-13.01
-17.9559
-23.5292
-29.4298
-35.3258
-40.8748
-45.7461
-49.6433
-52.3251
-53.625
-53.4648
-51.8628
-48.9337
-44.88
-39.9751
-34.5398
-28.9139
-23.426
-18.365
-13.9563
-10.3451
-7.58861
-5.65781
-4.44824
-3.79816
-3.51165
-3.38387
-3.22552
-2.88371
-2.25728
-1.30519
-0.0474803
1.44064
3.04045
4.60528
5.97795
7.00786
7.56589
7.55566
6.92024
5.64428
3.75168
1.29997
-1.62776
-4.93197
-8.5056
-12.2416
-16.0381
-19.8009
-23.4419
-26.876
-30.0147
-32.7605
-35.0031
-36.6184
-37.4736
-37.4368
-36.3923
-34.258
-31.0041
-26.6682
-21.3649
-15.2868
-8.69602
-1.90649
4.74229
10.9161
16.3192
20.7257
24.0073
26.1559
27.3012
27.7249
27.8732
28.3683
30.0167
33.808
40.8949
52.5404
70.0193
94.4648
126.661
166.794
214.198
267.141
322.697
376.777
424.339
459.799
477.608
472.95
442.446
384.781
301.128
195.302
73.5754
-55.8156
-183.451
-299.686
-395.673
-464.314
-501.022
-504.195
-475.343
-418.856
-341.462
-251.427
-157.624
-68.5807
8.39273
67.8744
106.753
124.36
122.315
104.13
74.6338
39.2991
3.56395
-27.7773
-51.0449
-63.9641
-65.7597
-57.0623
-39.6586
-16.132
10.5505
37.4475
61.9991
82.2918
97.2094
106.464
110.521
110.433
107.621
103.638
99.9352
97.6775
97.6093
99.9937
104.619
110.868
117.828
124.437
129.63
132.477
132.288
128.693
121.662
111.491
98.7562
84.2264
68.7731
53.2695
38.5021
25.0985
13.4822
3.8538
-3.79945
-9.67136
-14.0871
-17.4441
-20.1517
-22.5772
-25.0035
-27.6035
-30.4319
-33.4342
-36.4696
-39.3441
-41.8486
-43.7952
-45.0495
-45.5526
-45.3316
-44.4985
-43.2366
-41.7781
-40.3748
-39.2652
-38.6434
-38.6315
-39.2601
-40.4592
-42.0609
-43.8142
-45.4109
-46.5194
-46.8225
-46.055
-44.0355
-40.6886
-36.0555
-30.2897
-23.6409
-16.4265
-8.99774
-1.70165
5.15365
11.3274
16.6643
21.1007
24.6584
27.4274
29.541
31.1472
32.3798
33.3347
34.0536
34.5173
34.6483
34.3225
33.3855
31.6723
29.0269
25.32
20.465
14.4351
7.28377
-0.825973
-9.5832
-18.4809
-26.7661
-33.4011
-37.0558
-36.1532
-28.9881
-13.9293
10.3027
44.3102
87.6953
138.805
194.613
250.795
302.027
342.502
366.604
369.667
348.695
302.93
234.165
146.744
47.218
-56.3026
-155.019
-240.429
-305.29
-344.432
-355.326
-338.313
-296.505
-235.346
-161.928
-84.1349
-9.73842
54.4398
103.21
133.463
144.342
137.151
115.016
82.3638
44.3036
5.98377
-27.9914
-54.0214
-69.8024
-74.4353
-68.3555
-53.1112
-31.0361
-4.86782
22.634
49.022
72.4122
91.6293
106.242
116.498
123.177
127.393
130.38
133.283
136.994
142.033
148.496
156.064
164.071
171.604
177.639
181.178
181.373
177.633
169.688
157.621
141.851
123.082
102.221
80.276
58.2557
37.066
17.4327
-0.152239
-15.4532
-28.4811
-39.4569
-48.7524
-56.8204
-64.1201
-71.0502
-77.8948
-84.7887
-91.7042
-98.46
-104.749
-110.181
-114.337
-116.827
-117.339
-115.691
-111.854
-105.971
-98.35
-89.4366
-79.7766
-69.9634
-60.5817
-52.1521
-45.0829
-39.635
-35.902
-33.809
-33.1273
-33.5042
-34.5024
-35.6453
-36.4613
-36.5222
-35.4699
-33.0283
-28.9948
-23.2137
-15.5299
-5.73113
6.51206
21.694
40.4894
63.7187
92.2461
126.806
167.763
214.84
266.85
321.497
375.309
423.749
461.531
483.139
483.49
458.672
406.638
327.745
225.038
104.207
-26.8011
-158.496
-280.795
-384.095
-460.336
-503.9
-512.24
-486.146
-429.624
-349.399
-254.123
-153.377
-56.6167
27.83
93.5736
136.71
156.048
153.005
131.224
95.9531
53.3071
9.48774
-29.9261
-60.5463
-79.5437
-85.792
-79.7923
-63.4095
-39.4734
-11.308
17.7438
44.7403
67.4594
84.5852
95.7553
101.479
102.949
101.79
99.776
98.559
99.4498
103.263
110.247
120.09
132.009
144.873
157.374
168.195
176.157
180.349
180.202
175.523
166.487
153.587
137.564
119.318
99.8106
79.9828
60.6737
42.5643
26.1414
11.6832
-0.731438
-11.195
-19.9278
-27.2249
-33.4016
-38.7421
-43.46
-47.6731
-51.3959
-54.5489
-56.9836
-58.5162
-58.9672
-58.1987
-56.1446
-52.8304
-48.3784
-43.0001
-36.9758
-30.6261
-24.2786
-18.2351
-12.7433
-7.97712
-4.02692
-0.900887
1.46382
3.18216
4.39771
5.25816
5.89307
6.39685
6.81863
7.16002
7.38026
7.4074
7.15351
6.53152
5.47114
3.93186
1.91139
-0.551313
-3.37859
-6.46154
-9.67139
-12.873
-15.939
-18.7622
-21.2651
-23.4056
-25.1771
-26.6043
-27.7345
-28.6261
-29.3356
-29.9052
-30.3525
-30.6647
-30.7959
-30.6711
-30.1925
-29.2511
-27.7388
-25.5635
-22.6621
-19.0131
-14.6463
-9.64866
-4.16521
1.6048
7.41748
12.9989
18.0643
22.3403
25.5891
27.6319
28.3693
27.7965
26.0096
23.2037
19.6581
15.7138
11.7411
8.10337
5.12022
3.03432
1.9864
2.0015
2.98812
4.75057
7.01303
9.45242
11.7366
13.5641
14.7015
15.0174
14.5117
13.3405
11.8384
10.5393
10.192
11.7661
16.4373
25.5387
40.4626
62.5032
92.6401
131.277
177.971
231.192
288.189
344.997
396.638
437.524
462.04
465.235
443.543
395.417
321.765
226.107
114.417
-5.37885
-124.169
-232.607
-322.13
-385.899
-419.551
-421.654
-393.82
-340.458
-268.212
-185.165
-99.8996
-20.5558
46.0144
94.8952
123.492
131.624
121.336
96.4728
62.0772
23.7113
-13.2241
-44.0844
-65.4302
-75.289
-73.2171
-60.1748
-38.2475
-10.2639
20.6317
51.3964
79.4429
102.896
120.727
132.767
139.609
142.419
142.703
142.052
141.907
143.372
147.096
153.219
161.403
170.915
180.757
189.814
197.008
201.425
202.413
199.641
193.105
183.104
170.178
155.025
138.416
121.111
103.785
86.9874
71.1108
56.3963
42.9506
30.7796
19.828
10.0169
1.27464
-6.44354
-13.1488
-18.8242
-23.4392
-26.9696
-29.418
-30.831
-31.309
-31.0079
-30.1316
-28.9167
-27.612
-26.4544
-25.6465
-25.3362
-25.6018
-26.4446
-27.7881
-29.4855
-31.3336
-33.0912
-34.5026
-35.3212
-35.3331
-34.3777
-32.3635
-29.278
-25.1896
-20.2418
-14.6412
-8.63803
-2.50427
3.49059
9.10202
14.1294
18.4294
21.9223
24.5922
26.4798
27.6711
28.2824
28.4447
28.2883
27.9301
27.4639
26.9552
26.4386
25.9192
25.3763
24.7671
24.0324
23.1004
21.8908
20.3194
18.3016
15.7593
12.6285
8.86926
4.47745
-0.503833
-5.97444
-11.7718
-17.6718
-23.3984
-28.6407
-33.0792
-36.417
-38.4131
-38.9138
-37.8782
-35.3927
-31.6718
-27.0454
-21.9305
-16.792
-12.0952
-8.25638
-5.59737
-4.30949
-4.43207
-5.84844
-8.29998
-11.4167
-14.7603
-17.8748
-20.3378
-21.806
-22.0503
-20.9743
-18.6143
-15.1183
-10.7035
-5.59423
0.057097
6.25815
13.2632
21.6413
32.307
46.4893
65.6245
91.1589
124.273
165.552
214.645
269.993
328.669
386.41
437.875
477.115
498.237
496.168
467.416
410.72
327.459
221.766
100.281
-28.4176
-154.668
-268.732
-361.848
-427.182
-460.555
-460.853
-430.087
-373.078
-296.842
-209.743
-120.535
-37.4114
32.8261
85.3821
117.814
130.084
124.332
104.418
75.3177
42.4367
10.9512
-14.761
-31.5343
-37.6425
-32.8288
-18.1566
4.28267
31.7531
61.2926
90.11
115.912
137.129
153.02
163.654
169.79
172.672
173.784
174.588
176.302
179.714
185.09
192.14
200.085
207.765
213.812
216.837
215.607
209.21
197.17
179.505
156.735
129.825
100.084
69.0362
38.2694
9.28666
-16.6235
-38.4864
-55.7014
-68.0591
-75.718
-79.1469
-79.0432
-76.2396
-71.61
-65.9854
-60.0878
-54.4858
-49.574
-45.574
-42.5526
-40.4527
-39.1304
-38.3934
-38.0356
-37.8648
-37.722
-37.4919
-37.1048
-36.5316
-35.7753
-34.8582
-33.8094
-32.6524
-31.392
-30.0024
-28.4129
-26.4897
-24.0146
-20.6598
-15.9641
-9.31791
0.0311036
12.9382
30.2742
52.784
80.8949
114.494
152.709
193.744
234.812
272.225
301.649
318.534
318.668
298.795
257.199
194.158
112.18
15.9663
-87.9276
-191.691
-287.063
-366.231
-422.711
-452.082
-452.487
-424.829
-372.638
-301.641
-219.079
-132.88
-50.7871
20.4555
75.7529
112.085
128.67
126.857
109.796
81.9156
48.3172
14.1349
-16.0401
-38.619
-51.3108
-53.2376
-44.871
-27.8183
-4.49637
22.254
49.5616
74.8787
96.2559
112.513
123.298
129.031
130.767
129.976
128.301
127.31
128.27
131.984
138.692
148.051
159.189
170.822
181.423
189.406
193.315
191.996
184.721
171.266
151.928
127.485
99.1088
68.2394
36.4437
5.26978
-23.8833
-49.8676
-71.8529
-89.3536
-102.22
-110.596
-114.863
-115.566
-113.341
-108.855
-102.758
-95.6424
-88.0293
-80.3589
-72.9931
-66.2207
-60.2652
-55.2904
-51.4029
-48.6537
-47.0371
-46.4914
-46.9006
-48.1007
-49.8887
-52.0343
-54.2903
-56.3989
-58.0884
-59.0572
-58.9444
-57.2912
-53.5003
-46.8086
-36.2922
-20.9191
0.333403
28.2954
63.3658
105.25
152.719
203.451
254.003
299.968
336.319
357.936
360.251
339.929
295.485
227.728
139.942
37.7652
-71.2655
-178.438
-274.787
-352.094
-403.826
-425.892
-417.119
-379.369
-317.304
-237.817
-149.213
-60.258
20.8024
87.11
133.861
158.698
161.792
145.632
114.562
74.1346
30.3925
-10.8562
-44.6615
-67.3974
-77.0293
-73.167
-56.9221
-30.6043
2.68761
39.5221
76.5756
111.007
140.728
164.544
182.17
194.125
201.537
205.895
208.774
211.588
215.388
220.724
227.593
235.467
243.387
250.113
254.297
254.67
250.206
240.255
224.62
203.588
177.899
148.667
117.264
85.1865
53.9054
24.735
-1.2797
-23.4397
-41.4281
-55.3039
-65.4565
-72.529
-77.3195
-80.6742
-83.3839
-86.0959
-89.2491
-93.0401
-97.4201
-102.121
-106.709
-110.651
-113.395
-114.444
-113.424
-110.134
-104.573
-96.9445
-87.6334
-77.1681
-66.1619
-55.248
-45.0125
-35.9292
-28.3034
-22.2231
-22.2231
-22.2231
-22.2231
-22.2231
-22.2231
-22.2231
-22.2231
-22.2231
-22.2231
-22.2231
-22.2231
-22.2231
-22.2231
-22.2231
-22.2231
-22.2231
-22.2231
-22.2231
-22.2231
