146.196
127.432
107.13
86.047
65.0642
45.1143
27.0915
11.7632
-0.306476
-8.81249
-13.7357
-15.3383
-14.1286
-10.7995
-6.15022
-0.998712
3.90167
7.93378
10.6678
11.8875
11.5901
9.9619
7.33426
4.12682
0.785946
-2.27392
-4.71911
-6.33072
-7.02109
-6.83225
-5.91842
-4.51618
-2.90734
-1.37969
-0.191007
0.459884
0.451794
-0.251441
-1.60472
-3.4949
-5.76095
-8.21768
-10.6799
-12.9838
-15.0035
-16.6606
-17.9273
-18.822
-19.3996
-19.7383
-19.9236
-20.0332
-20.1241
-20.2232
-20.3228
-20.3816
-20.3312
-20.0867
-19.5606
-18.6771
-17.3867
-15.6766
-13.5768
-11.1613
-8.5424
-5.8606
-3.27002
-0.922163
1.05038
2.54802
3.51433
3.941
3.86727
3.37388
2.57268
1.5932
0.567981
-0.381462
-1.15652
-1.68987
-1.94967
-1.93938
-1.69352
-1.27032
-0.74227
-0.185988
0.32749
0.740807
1.01606
1.1378
1.11312
0.969111
0.748083
0.501249
0.281662
0.137185
0.104296
0.20338
0.436027
0.784609
1.21417
1.67637
2.11506
2.47273
2.69714
2.7474
2.59876
2.24562
1.70257
1.00318
0.196883
-0.655772
-1.48903
-2.23833
-2.8465
-3.26926
-3.47922
-3.46826
-3.24779
-2.84713
-2.30996
-1.6896
-1.0433
-0.426508
0.112509
0.536912
0.824138
0.967037
0.973294
0.863302
0.666832
0.418964
0.155787
-0.0896178
-0.290478
-0.428604
-0.495457
-0.492006
-0.427506
-0.317435
-0.180933
-0.0380817
0.0926287
0.196361
0.263323
0.289398
0.276009
0.22932
0.158947
0.0763788
-0.00665337
-0.0796648
-0.134585
-0.166498
-0.173914
-0.158577
-0.124895
-0.0790843
-0.0281491
0.0212253
0.0638204
0.0970817
0.122379
0.146291
0.181787
0.249062
0.375706
0.595895
0.948382
1.47324
2.20759
3.18077
4.40959
5.8945
7.61733
9.54122
11.6128
13.7668
15.9321
18.0387
20.0249
21.8429
23.4624
24.8723
26.079
27.1024
27.9704
28.7121
29.351
29.8995
30.3544
30.696
30.8889
30.8849
30.6294
30.0671
29.1498
27.8424
26.1287
24.0142
21.5277
18.7201
15.6613
12.4353
9.13428
5.8528
2.68152
-0.297764
-3.01596
-5.41905
-7.46893
-9.14292
-10.4323
-11.3401
-11.8788
-12.0683
-11.9339
-11.5053
-10.8157
-9.90174
-8.80351
-7.56443
-6.23115
-4.85305
-3.48126
-2.16741
-0.962049
0.0867598
0.93465
1.54142
1.87046
1.88675
1.55324
0.825805
-0.352194
-2.05395
-4.36917
-7.39674
-11.2268
-15.9098
-21.4133
-27.5673
-34.0083
-40.1294
-45.0526
-47.6357
-46.5256
-40.2625
-27.4348
-6.86931
22.1613
59.7429
105.168
156.858
212.377
268.563
321.755
368.109
403.974
426.269
432.827
422.664
396.116
354.855
301.747
240.589
175.744
111.72
52.7404
2.35206
-36.8782
-63.5549
-77.5122
-79.7397
-72.1912
-57.5039
-38.6666
-18.6768
-0.225997
14.5523
24.2492
28.2501
26.7074
20.4295
10.7058
-0.90444
-12.7922
-23.4995
-31.8808
-37.2074
-39.2116
-38.0679
-34.324
-28.7926
-22.4224
-16.1667
-10.8649
-7.15181
-5.40036
-5.70386
-7.89377
-11.5879
-16.2596
-21.3161
-26.1778
-30.3448
-33.4479
-35.2762
-35.7827
-35.0686
-33.351
-30.9206
-28.0947
-25.1735
-22.4035
-19.9541
-17.906
-16.2552
-14.9277
-13.8023
-12.7387
-11.6048
-10.2996
-8.76989
-7.01746
-5.09725
-3.10753
-1.17389
0.570029
2.00214
3.02895
3.59796
3.70378
3.38782
2.73173
1.84613
0.856234
-0.113408
-0.953112
-1.57942
-1.94241
-2.02843
-1.85812
-1.48062
-0.964729
-0.388642
0.170519
0.645985
0.988418
1.17014
1.18626
1.05287
0.802824
0.479931
0.132333
-0.193892
-0.460189
-0.639386
-0.717633
-0.694332
-0.580283
-0.394488
-0.160227
0.0989476
0.362667
0.616193
0.851581
1.06751
1.26792
1.45983
1.65065
1.84552
2.04519
2.24451
2.43213
2.5911
2.7006
2.73837
2.68355
2.51954
2.23653
1.83328
1.31804
0.708447
0.0305241
-0.683108
-1.39559
-2.0685
-2.66466
-3.15084
-3.50018
-3.69429
-3.72468
-3.59361
-3.31401
-2.90871
-2.40869
-1.85069
-1.27419
-0.718178
-0.217898
0.198017
0.509752
0.707626
0.792377
0.774416
0.672143
0.509561
0.313454
0.110481
-0.0755052
-0.225625
-0.327421
-0.375479
-0.371218
-0.321944
-0.239332
-0.137572
-0.031422
0.0656008
0.142686
0.192716
0.212706
0.203694
0.170168
0.119123
0.0589271
-0.00186201
-0.0555753
-0.0962815
-0.120331
-0.126557
-0.116148
-0.0922448
-0.0593304
-0.0225276
0.0131123
0.0432333
0.0646452
0.0755968
0.0758399
0.0664989
0.0497812
0.0285841
0.00605683
-0.0148223
-0.0316016
-0.0426072
-0.047069
-0.0451131
-0.0376251
-0.0259889
-0.0117081
0.0040822
0.0211875
0.0409591
0.0668486
0.104801
0.163368
0.253448
0.387589
0.578857
0.839359
1.17856
1.60159
2.10778
2.68964
3.33246
4.01463
4.70869
5.3831
6.00451
6.54051
6.96244
7.24817
7.38444
7.36858
7.20933
6.92661
6.55012
6.11703
5.66875
5.24724
4.89129
4.63313
4.49573
4.4912
4.62028
4.87299
5.2303
5.66644
6.15157
6.65447
7.14484
7.59511
7.98147
8.28435
8.48821
8.581
8.55341
8.39806
8.1088
7.68001
7.106
6.38022
5.49415
4.43573
3.18693
1.72036
-0.00509116
-2.0492
-4.49477
-7.44949
-11.0426
-15.4135
-20.6885
-26.9443
-34.1574
-42.1404
-50.4736
-58.4426
-64.9962
-68.7463
-68.0236
-61.0028
-45.8972
-21.2102
13.9846
59.7747
115.198
178.135
245.342
312.636
375.227
428.172
466.894
487.693
488.203
467.708
427.285
369.749
299.394
221.574
142.161
66.9532
1.10261
-51.3729
-87.935
-107.695
-111.397
-101.224
-80.4574
-53.0454
-23.127
5.42404
29.3868
46.4715
55.4673
56.2516
49.6753
37.3464
21.3499
3.94203
-12.7419
-26.932
-37.3964
-43.53
-45.3564
-43.4523
-38.8137
-32.6852
-26.3778
-21.0993
-17.8158
-17.1589
-19.3834
-24.3758
-31.7074
-40.7188
-50.623
-60.6135
-69.9608
-78.09
-84.6299
-89.4319
-92.5596
-94.2529
-94.8744
-94.8469
-94.5892
-94.4602
-94.7152
-95.4807
-96.7473
-98.3799
-100.143
-101.734
-102.824
-103.092
-102.264
-100.132
-96.5714
-91.5517
-85.1328
-77.4594
-68.7497
-59.2811
-49.3728
-39.3673
-29.6101
-20.4295
-12.1162
-4.90486
1.04053
5.63731
8.88811
10.8781
11.7656
11.766
11.1312
10.1267
9.00767
7.99761
7.27122
6.94316
7.06364
7.62099
8.55042
9.74764
11.0854
12.431
13.6625
14.6822
15.4255
15.8653
16.0114
15.9053
15.6123
15.211
14.7825
14.4006
14.1234
13.9879
14.0076
14.1728
14.4537
14.8059
15.176
15.5091
15.7543
15.8703
15.8286
15.6156
15.2324
14.6926
14.0193
13.2405
12.3847
11.4765
10.5337
9.5644
8.56736
7.53214
6.44134
5.27349
4.00639
2.62063
1.10269
-0.552447
-2.33969
-4.243
-6.23552
-8.28055
-10.3331
-12.3422
-14.2532
-16.0108
-17.562
-18.8591
-19.8626
-20.5436
-20.8864
-20.8894
-20.5661
-19.9449
-19.0681
-17.9898
-16.7733
-15.4876
-14.2029
-12.9868
-11.899
-10.9873
-10.2835
-9.80036
-9.53052
-9.44632
-9.5019
-9.63695
-9.78205
-9.86513
-9.81851
-9.58569
-9.12733
-8.42565
-7.48675
-6.34063
-5.03874
-3.64932
-2.251
-0.925381
0.250773
1.21268
1.91343
2.32803
2.4551
2.31627
1.95337
1.42368
0.793988
0.133882
-0.490804
-1.02385
-1.42323
-1.66392
-1.7389
-1.65825
-1.44649
-1.13881
-0.776354
-0.401385
-0.052731
0.237975
0.448924
0.569428
0.599879
0.550491
0.439125
0.288551
0.123591
-0.0314858
-0.154983
-0.229042
-0.240121
-0.178815
-0.0392615
0.181566
0.484396
0.867835
1.3281
1.85839
2.44814
3.08235
3.74142
4.4017
5.03697
5.62085
6.12994
6.54749
6.86683
7.09423
7.25048
7.37082
7.50299
7.70345
8.03204
8.54581
9.29251
10.3047
11.595
13.154
14.9492
16.9277
19.0207
21.1498
23.2341
25.1985
26.9798
28.5329
29.8333
30.8778
31.6821
32.2762
32.6977
32.9835
33.1617
33.2425
33.2106
33.0177
32.5778
31.765
30.4168
28.3449
25.3587
21.3022
16.109
9.87189
2.92076
-4.10267
-10.1924
-13.9681
-13.7285
-7.57965
6.35833
29.6819
63.4027
107.657
161.483
222.705
287.971
352.963
412.749
462.274
496.903
512.965
508.214
482.146
436.127
373.299
298.293
216.761
134.798
58.3207
-7.52072
-58.8305
-93.2981
-110.341
-111.051
-97.9599
-74.6651
-45.3615
-14.3465
14.4473
37.837
53.6569
60.8844
59.625
50.9699
36.7542
19.2556
0.873058
-16.1736
-30.0897
-39.6739
-44.3973
-44.3915
-40.3591
-33.4241
-24.9477
-16.3352
-8.85984
-3.52204
-0.959043
-1.4093
-4.73055
-10.4629
-17.9239
-26.3197
-34.8567
-42.8396
-49.7445
-55.2613
-59.3039
-61.9888
-63.5909
-64.4819
-65.0638
-65.7039
-66.6808
-68.1473
-70.1123
-72.4428
-74.8838
-77.0917
-78.6778
-79.2547
-78.4828
-76.1103
-72.0038
-66.1671
-58.7449
-50.0123
-40.3509
-30.2137
-20.0831
-10.4273
-1.65814
5.90245
12.046
16.6877
19.8628
21.7113
22.452
22.3513
21.6894
20.7285
19.6871
18.7219
17.9191
17.2957
16.8088
16.3716
15.8735
15.2005
14.2543
12.9679
11.3145
9.31124
7.01644
4.52141
1.93863
-0.612162
-3.01796
-5.18482
-7.04695
-8.57172
-9.76017
-10.6433
-11.2747
-11.7214
-12.0528
-12.331
-12.6022
-12.8908
-13.1967
-13.496
-13.7449
-13.8864
-13.8586
-13.6038
-13.0781
-12.2583
-11.147
-9.77478
-8.19845
-6.49623
-4.76022
-3.08705
-1.56792
-0.279355
0.724429
1.41639
1.79846
1.89999
1.77341
1.4874
1.11889
0.744544
0.433026
0.238709
0.197595
0.325696
0.619953
1.06136
1.61975
2.25945
2.94485
3.64504
4.33671
5.00501
5.64228
6.2451
6.81053
7.33218
7.79738
8.18571
8.46973
8.61752
8.59692
8.38064
7.95136
7.30607
6.45873
5.44085
4.29972
3.09452
1.89076
0.753796
-0.257747
-1.09772
-1.73667
-2.16402
-2.38789
-2.43284
-2.33577
-2.14062
-1.89275
-1.63356
-1.39624
-1.20295
-1.06376
-0.977354
-0.933238
-0.914956
-0.903861
-0.882789
-0.839121
-0.766818
-0.667211
-0.548512
-0.424209
-0.310689
-0.224472
-0.17954
-0.18513
-0.244318
-0.353546
-0.50312
-0.678555
-0.862518
-1.03707
-1.18587
-1.29597
-1.35908
-1.37199
-1.33622
-1.25706
-1.14198
-0.998928
-0.834579
-0.652889
-0.454118
-0.234433
0.0138417
0.301384
0.640523
1.04356
1.52096
2.07978
2.72246
3.44649
4.24496
5.10809
6.02534
6.98774
7.98965
9.02932
10.1079
11.2268
12.3838
13.5692
14.7618
15.9273
17.0186
17.9796
18.7501
19.2735
19.5049
19.4176
19.0081
18.2979
17.3309
16.1686
14.8807
13.5345
12.1825
10.8505
9.52576
8.14896
6.60979
4.74975
2.3749
-0.718581
-4.70352
-9.66516
-15.5317
-21.9988
-28.462
-33.9709
-37.2281
-36.6457
-30.4727
-16.9911
5.23484
37.0846
78.6247
128.914
185.916
246.544
306.855
362.385
408.582
441.293
457.248
454.458
432.492
392.582
337.539
271.487
199.453
126.854
58.9484
0.314688
-45.5753
-76.651
-92.369
-93.6674
-82.7601
-62.8057
-37.4959
-10.6173
14.3618
34.633
48.2847
54.4144
53.1154
45.3502
32.7364
17.2782
1.08112
-13.914
-26.1491
-34.5968
-38.8279
-38.9994
-35.7717
-30.1736
-23.4369
-16.8236
-11.4675
-8.24943
-7.71555
-10.0456
-15.0692
-22.3222
-31.1332
-40.7249
-50.3168
-59.2171
-66.8923
-73.0093
-77.4481
-80.2857
-81.7578
-82.2048
-82.0108
-81.5444
-81.1086
-80.9041
-81.0101
-81.3824
-81.8665
-82.2236
-82.1645
-81.3872
-79.6149
-76.6299
-72.3016
-66.605
-59.63
-51.5789
-42.7535
-33.5317
-24.3367
-15.6009
-7.72766
-1.05645
4.16678
7.80969
9.86235
10.4338
9.73711
8.06411
5.75407
3.1587
0.60817
-1.61841
-3.31493
-4.36079
-4.7231
-4.44911
-3.65049
-2.48201
-1.11756
0.27328
1.54536
2.59261
3.35589
3.82373
4.02668
4.02659
3.90291
3.73816
3.60465
3.55429
3.61243
3.77638
4.01822
4.29115
4.53811
4.70122
4.73057
4.59136
4.26826
3.76697
3.11284
2.34703
1.521
0.690137
-0.0927041
-0.782861
-1.34823
-1.7719
-2.05291
-2.20515
-2.25475
-2.23612
-2.18749
-2.14614
-2.14411
-2.20468
-2.34005
-2.55036
-2.82409
-3.13979
-3.4688
-3.77869
-4.03694
-4.21447
-4.2886
-4.2452
-4.07989
-3.79818
-3.41469
-2.95152
-2.43607
-1.8985
-1.3691
-0.875728
-0.441735
-0.0842509
0.18681
0.369071
0.467283
0.492236
0.459124
0.385556
0.289482
0.187277
0.0922358
0.0136303
-0.0436125
-0.0786254
-0.0938267
-0.0938074
-0.0840581
-0.0696989
-0.0543539
-0.0392782
-0.0228169
-0.000250554
0.0359415
0.0953896
0.188739
0.326218
0.515983
0.762413
1.06457
1.41507
1.79955
2.19706
2.58119
2.92229
3.19029
3.35799
3.40452
3.31839
3.09987
2.76238
2.33252
1.84888
1.35947
0.91821
0.580604
0.399245
0.419464
0.675678
1.18878
1.96481
2.99496
4.25688
5.71684
7.33263
9.05655
10.8382
12.6268
14.3726
16.0277
17.5464
18.8848
20.001
20.8551
21.4103
21.6341
21.5007
20.9927
20.1036
18.8385
17.2153
15.2621
13.0149
10.5115
7.78413
4.8498
1.70112
-1.70139
-5.43183
-9.59277
-14.2967
-19.6323
-25.6136
-32.1152
-38.7991
-45.0456
-49.9037
-52.0815
-49.9948
-41.8854
-26.0132
-0.907538
34.3493
79.8476
134.635
196.602
262.518
328.213
388.916
439.72
476.097
494.424
492.435
469.535
426.933
367.574
295.869
217.253
137.635
62.7998
-2.17218
-53.3813
-88.4447
-106.649
-108.915
-97.5816
-76.0518
-48.3467
-18.6236
9.27931
32.2246
48.0425
55.6632
55.1108
47.3722
34.1671
17.6586
0.141169
-16.2511
-29.7862
-39.2992
-44.2715
-44.8215
-41.6193
-35.7428
-28.4998
-21.2421
-15.1936
-11.3141
-10.2102
-12.0991
-16.8245
-23.9165
-32.6823
-42.3148
-52.0015
-61.0215
-68.8201
-75.0529
-79.5984
-82.5417
-84.1329
-84.7298
-84.7339
-84.5272
-84.4191
-84.6077
-85.1591
-86.0055
-86.9598
-87.7435
-88.0243
-87.4585
-85.733
-82.6042
-77.9297
-71.6896
-63.9963
-55.0912
-45.3284
-35.1464
-25.0312
-15.4735
-6.92454
0.244624
5.77563
9.54422
11.5677
11.9979
11.1004
9.22347
6.75909
4.10221
1.61184
-0.421175
-1.79676
-2.4164
-2.28202
-1.48378
-0.179296
1.43264
3.14023
4.74527
6.08519
7.04848
7.58222
7.69177
7.43347
6.90189
6.21376
5.4909
4.84417
4.3604
4.09344
4.06013
4.24115
4.58617
5.02246
5.46536
5.82951
6.0391
6.03625
5.78648
5.28099
4.5357
3.58734
2.48761
1.29598
0.0724952
-1.12865
-2.26391
-3.30306
-4.22974
-5.03991
-5.73887
-6.33744
-6.84798
-7.28101
-7.64275
-7.93402
-8.15033
-8.28324
-8.32231
-8.25757
-8.0818
-7.79244
-7.3928
-6.89248
-6.30704
-5.65696
-4.96618
-4.26034
-3.56495
-2.90368
-2.29679
-1.76006
-1.30389
-0.93305
-0.646781
-0.439325
-0.300862
-0.218704
-0.178646
-0.166335
-0.168528
-0.174117
-0.174835
-0.16559
-0.144434
-0.112169
-0.0716883
-0.027093
0.0172988
0.0579699
0.0931458
0.123558
0.152927
0.188076
0.238605
0.316092
0.432891
0.600607
0.828444
1.12163
1.48009
1.89765
2.36173
2.85375
3.35025
3.82447
4.2485
4.59567
4.84289
4.97277
4.97523
4.84839
4.59866
4.23992
3.79212
3.27913
2.72649
2.15896
1.59844
1.06232
0.562519
0.105249
-0.308414
-0.681348
-1.01872
-1.32611
-1.60774
-1.86494
-2.09526
-2.29216
-2.44546
-2.5424
-2.56915
-2.51262
-2.3622
-2.1112
-1.75794
-1.30613
-0.764719
-0.147206
0.529451
1.24608
1.98253
2.71864
3.43504
4.11344
4.73683
5.28946
5.75687
6.12607
6.38598
6.5281
6.54729
6.44241
6.21648
5.87597
5.42888
4.8811
4.23101
3.46238
2.53614
1.38251
-0.104457
-2.06675
-4.67334
-8.09839
-12.4841
-17.8868
-24.2095
-31.1261
-38.0101
-43.8844
-47.4105
-46.9365
-40.6156
-26.5989
-3.29021
30.3659
74.6007
128.593
190.345
256.691
323.479
385.893
438.913
477.844
498.849
499.429
478.756
437.84
379.477
307.999
228.841
147.987
71.3602
4.23187
-49.2847
-86.5916
-106.783
-110.626
-100.364
-79.3603
-51.6574
-21.4826
7.21937
31.1839
48.1111
56.8136
57.2231
50.2669
37.6421
21.5232
4.24476
-12.0005
-25.413
-34.7637
-39.4813
-39.6506
-35.9297
-29.406
-21.4139
-13.3429
-6.45767
-1.75467
0.133367
-1.02311
-5.06566
-11.5098
-19.6409
-28.6283
-37.6412
-45.9508
-53.008
-58.4891
-62.3063
-64.5874
-65.6281
-65.8288
-65.6233
-65.4118
-65.5039
-66.0801
-67.1733
-68.6703
-70.3328
-71.8319
-72.7921
-72.8402
-71.6511
-68.9899
-64.7421
-58.932
-51.7264
-43.4229
-34.4249
-25.2048
-16.2605
-8.06845
-1.03974
4.51752
8.42417
10.6425
11.2737
10.5416
8.76359
6.31444
3.58533
0.944264
-1.29846
-2.91595
-3.77936
-3.86076
-3.22459
-2.00991
-0.405965
1.37533
3.12662
4.66896
5.86972
6.65307
7.00255
6.95612
6.5951
6.02894
5.37806
4.75724
4.26134
3.9552
3.86835
3.9949
4.29794
4.71758
5.18108
5.61364
5.94832
6.13397
6.14028
5.95961
5.60571
5.10977
4.5145
3.86723
3.21294
2.58809
2.01603
1.50439
1.04482
0.614825
0.181539
-0.29325
-0.847463
-1.51327
-2.31252
-3.25352
-4.32956
-5.51915
-6.7876
-8.08975
-9.3731
-10.581
-11.6558
-12.5414
-13.1862
-13.5455
-13.5845
-13.2818
-12.6318
-11.6481
-10.3645
-8.83541
-7.13351
-5.34578
-3.56729
-1.89366
-0.412837
0.802746
1.70277
2.2635
2.48957
2.41292
2.089
1.5908
1.0013
0.405454
-0.117617
-0.501297
-0.696405
-0.674025
-0.426127
0.0358842
0.684297
1.47939
2.37431
3.31986
4.26888
5.17955
6.01777
6.75825
7.38468
7.88895
8.26988
8.53156
8.68162
8.72965
8.68582
8.55987
8.3605
8.09516
7.77013
7.39101
6.96324
6.49276
5.9865
5.45272
4.90099
4.34188
3.78638
3.24513
2.72756
2.24107
1.79046
1.37746
1.00066
0.655583
0.335143
0.030212
-0.269537
-0.574697
-0.895124
-1.23896
-1.61183
-2.0162
-2.45108
-2.91208
-3.3917
-3.87993
-4.36501
-4.83426
-5.27496
-5.67516
-6.02444
-6.31454
-6.53986
-6.69766
-6.78802
-6.81337
-6.77776
-6.68573
-6.54104
-6.34551
-6.09802
-5.79405
-5.42586
-4.98331
-4.45532
-3.83172
-3.10522
-2.27327
-1.33945
-0.3141
0.785721
1.93716
3.1131
4.28418
5.42088
6.49551
7.48381
8.36603
9.12747
9.75852
10.2544
10.6148
10.8432
10.9467
10.9358
10.8232
10.6234
10.3504
10.0149
9.61966
9.15356
8.58419
7.85046
6.85616
5.46712
3.51454
0.807681
-2.84096
-7.57582
-13.4435
-20.3252
-27.8637
-35.3962
-41.9078
-46.0264
-46.074
-40.1887
-26.5176
-3.47072
29.9931
74.0863
127.969
189.623
255.874
322.559
384.862
437.763
476.568
497.444
497.893
477.087
436.033
377.529
305.906
226.609
145.632
68.9176
1.75365
-51.7279
-88.9151
-108.895
-112.439
-101.801
-80.3679
-52.2089
-21.5826
7.53656
31.8593
49.0695
57.9737
58.5085
51.6159
39.0152
22.9073
5.65411
-10.5273
-23.8196
-32.9839
-37.4491
-37.3095
-33.2413
-26.3559
-18.016
-9.63939
-2.51765
2.33057
4.25653
3.02234
-1.21335
-7.95694
-16.4759
-25.9132
-35.4044
-44.1818
-51.6538
-57.4542
-61.4558
-63.7536
-64.6209
-64.4486
-63.676
-62.724
-61.9373
-61.5432
-61.629
-62.1397
-62.8937
-63.6132
-63.9653
-63.6079
-62.2355
-59.6198
-55.6404
-50.3024
-43.7395
-36.2013
-28.0276
-19.6124
-11.3631
-3.65869
3.18658
8.95069
13.5194
16.8886
19.1545
20.4926
21.131
21.3188
21.2968
21.2714
21.3968
21.7643
22.4018
23.2803
24.3274
25.4444
26.5244
27.4698
28.2062
28.6914
28.9199
28.9207
28.7521
28.4918
28.2258
28.0367
27.993
28.1417
28.5021
29.0653
29.7952
30.6341
31.509
32.3401
33.0494
33.5679
33.8414
33.8346
33.5318
32.9359
32.0643
30.9445
29.6079
28.0845
26.3986
24.5673
22.6
20.5021
18.2792
15.9423
13.5133
11.0281
8.53688
6.10087
3.78589
1.65248
-0.255025
-1.91897
-3.35619
-4.62118
-5.80364
-7.0199
-8.3993
-10.067
-12.126
-14.6407
-17.6244
-21.034
-24.7706
-28.6884
-32.609
-36.3405
-39.6978
-42.5229
-44.7006
-46.1699
-46.9282
-47.0291
-46.5734
-45.6956
-44.5475
-43.2806
-42.03
-40.9016
-39.9634
-39.2426
-38.7268
-38.3708
-38.1057
-37.8506
-37.5241
-37.0547
-36.3888
-35.4957
-34.3682
-33.0209
-31.4854
-29.8036
-28.0202
-26.1768
-24.3059
-22.4285
-20.5528
-18.6766
-16.7901
-14.8813
-12.9404
-10.9646
-8.96081
-6.9475
-4.9538
-3.01734
-1.18046
0.51424
2.02854
3.33266
4.40825
5.24995
5.86545
6.27407
6.50417
6.5898
6.56694
6.46991
6.32827
6.16449
5.99265
5.81818
5.63857
5.445
5.2245
4.96243
4.64492
4.26105
3.8043
3.27345
2.67252
2.01008
1.29807
0.550306
-0.218893
-0.995767
-1.76765
-2.52295
-3.25055
-3.9389
-4.57501
-5.14357
-5.62652
-6.00328
-6.25161
-6.34923
-6.27587
-6.01567
-5.55938
-4.9062
-4.06486
-3.05377
-1.90026
-0.638846
0.69117
2.04846
3.39251
4.68624
5.89801
7.00307
7.98424
8.8319
9.54351
10.1226
10.5777
10.9205
11.1649
11.3247
11.4119
11.4347
11.3943
11.2817
11.0735
10.7265
10.1723
9.3132
8.02133
6.14521
3.52684
0.0333918
-4.39461
-9.67967
-15.5339
-21.3868
-26.3308
-29.1047
-28.1336
-21.6398
-7.82948
14.8587
47.4674
90.2401
142.393
201.99
265.955
330.24
390.156
440.811
477.635
496.9
496.183
474.695
433.44
375.163
304.108
225.598
145.493
69.5996
3.08763
-49.9986
-87.0946
-107.291
-111.319
-101.358
-80.6978
-53.2975
-23.3121
5.37079
29.5213
46.8491
56.152
57.3262
51.2488
39.5591
24.3746
7.98062
-7.46557
-20.1828
-28.9411
-33.1507
-32.863
-28.6923
-21.6778
-13.1077
-4.33219
3.41029
9.1339
12.199
12.3523
9.71431
4.72224
-1.96075
-9.55327
-17.2659
-24.3993
-30.4189
-35.0006
-38.0426
-39.6488
-40.0856
-39.7241
-38.9735
-38.2177
-37.761
-37.7898
-38.3537
-39.3649
-40.6182
-41.8233
-42.6488
-42.77
-41.9144
-39.9008
-36.6664
-32.2785
-26.9304
-20.9223
-14.6289
-8.45849
-2.80935
1.97274
5.62936
8.01353
9.10032
8.98333
7.85817
5.9955
3.70739
1.31145
-0.903124
-2.70356
-3.93295
-4.51934
-4.4744
-3.88269
-2.88354
-1.64852
-0.357377
0.824328
1.76359
2.37239
2.61339
2.49884
2.08363
1.45389
0.713118
-0.0322865
-0.686128
-1.17281
-1.44403
-1.48143
-1.29546
-0.920905
-0.410299
0.173971
0.767615
1.31155
1.75749
2.07148
2.23536
2.24627
2.11452
1.86052
1.5111
1.09601
0.64489
0.185039
-0.259956
-0.670735
-1.03207
-1.33242
-1.56342
-1.71948
-1.79767
-1.79785
-1.723
-1.57954
-1.37749
-1.13035
-0.854489
-0.568201
-0.290314
-0.0386485
0.171564
0.329065
0.427574
0.466292
0.449841
0.387695
0.293196
0.182322
0.0723905
-0.0191536
-0.0757369
-0.082389
-0.026212
0.10335
0.314342
0.612116
0.999054
1.47416
2.03254
2.66486
3.35692
4.08949
4.83867
5.57664
6.2731
6.89718
7.41966
7.81534
8.0651
8.15769
8.09061
7.87036
7.51166
7.03607
6.46981
5.84144
5.17937
4.50966
3.85435
3.23039
2.6492
2.11702
1.63569
1.20392
0.818645
0.476423
0.174542
-0.0882843
-0.311753
-0.494358
-0.634252
-0.730445
-0.784094
-0.799667
-0.785732
-0.755218
-0.725049
-0.715155
-0.746958
-0.841489
-1.01735
-1.28871
-1.66358
-2.14241
-2.7173
-3.37172
-4.08081
-4.81237
-5.5283
-6.18659
-6.74355
-7.1564
-7.38577
-7.39824
-7.16857
-6.6816
-5.93369
-4.93356
-3.70252
-2.27391
-0.691776
0.99117
2.71634
4.42252
6.04942
7.54119
8.8497
9.93723
10.7783
11.3607
11.6852
11.7648
11.6227
11.2902
10.8035
10.2014
9.52105
8.79508
8.04621
7.28144
6.48448
5.60716
4.56093
3.21082
1.37505
-1.1657
-4.64525
-9.27186
-15.17
-22.3065
-30.4074
-38.8791
-46.7489
-52.6479
-54.8522
-51.3998
-40.2844
-19.7173
11.5722
54.0358
107.057
168.802
236.215
305.169
370.793
427.915
471.607
497.734
503.451
487.574
450.774
395.56
326.056
247.593
166.158
87.7898
17.9725
-38.8938
-79.8798
-103.739
-110.923
-103.416
-84.4011
-57.834
-27.9513
1.205
26.2021
44.5246
54.7502
56.5828
50.7541
38.8154
22.8569
5.19343
-11.9411
-26.6556
-37.5933
-44.0357
-45.9176
-43.7603
-38.5394
-31.5126
-24.0312
-17.3622
-12.5414
-10.2716
-10.8751
-14.2989
-20.167
-27.8668
-36.6547
-45.7659
-54.5127
-62.3602
-68.9718
-74.2237
-78.1868
-81.0862
-83.2426
-85.0075
-86.7011
-88.56
-90.7018
-93.1082
-95.6284
-97.9993
-99.8798
-100.893
-100.671
-98.9026
-95.3652
-89.9588
-82.7211
-73.832
-63.6044
-52.4629
-40.9105
-29.4889
-18.7326
-9.124
-1.0531
5.21498
9.55959
12.0101
12.7368
12.0277
10.2545
7.83207
5.17517
2.65793
0.580568
-0.853609
-1.54888
-1.51499
-0.853544
0.264807
1.62885
3.01727
4.22734
5.09851
5.52875
5.48206
4.98724
4.12872
3.03132
1.8413
0.706354
-0.242804
-0.907193
-1.22908
-1.19556
-0.836286
-0.216161
0.575553
1.43806
2.27192
2.99048
3.52844
3.84687
3.93436
3.80457
3.49095
3.03948
2.50072
1.9222
1.34222
0.785711
0.262425
-0.232287
-0.714671
-1.20815
-1.73803
-2.32605
-2.98557
-3.71778
-4.50959
-5.33331
-6.14817
-6.90359
-7.54387
-8.01386
-8.26497
-8.26098
-7.9829
-7.43218
-6.63205
-5.6264
-4.4765
-3.25571
-2.04274
-0.914306
0.0621082
0.834424
1.37046
1.66021
1.71569
1.56852
1.26546
0.86265
0.419183
-0.00919277
-0.375532
-0.645748
-0.8009
-0.837574
-0.766453
-0.609363
-0.395226
-0.15545
0.0806841
0.290103
0.459001
0.584538
0.674994
0.748365
0.829618
0.946942
1.12753
1.3934
1.75789
2.22318
2.77923
3.40423
4.0664
4.72696
5.34381
5.87551
6.28517
6.54369
6.63236
6.5443
6.28493
5.87126
5.33029
4.69651
4.00883
3.30723
2.62941
2.0078
1.46724
1.02348
0.682741
0.442268
0.291815
0.215839
0.196132
0.214536
0.255418
0.307566
0.365275
0.428452
0.501713
0.592569
0.708925
0.856228
1.03469
1.237
1.44697
1.63939
1.78117
1.83393
1.75768
1.51527
1.07722
0.426267
-0.438865
-1.50097
-2.72355
-4.05178
-5.41547
-6.73357
-7.92011
-8.89092
-9.57059
-9.89909
-9.83742
-9.37171
-8.51544
-7.30944
-5.81963
-4.13252
-2.34896
-0.576445
1.07909
2.52147
3.67154
4.47291
4.89559
4.93735
4.62265
3.99935
3.13369
2.10378
0.992218
-0.121878
-1.17131
-2.10962
-2.92031
-3.62632
-4.299
-5.06508
-6.10914
-7.66804
-10.0135
-13.4188
-18.1079
-24.1859
-31.5568
-39.8362
-48.2747
-55.7099
-60.5693
-60.9409
-54.7252
-39.8648
-14.6371
22.0255
70.2333
128.908
195.675
266.912
337.975
403.589
458.359
497.359
516.698
514.011
488.788
442.499
378.495
301.689
218.056
134.014
55.7693
-11.3114
-63.2059
-97.5786
-113.919
-113.471
-98.9694
-74.2362
-43.6756
-11.7507
17.5059
40.8883
56.2841
62.7886
60.6695
51.1973
36.3763
18.6167
0.393578
-16.0647
-29.0248
-37.4086
-40.8557
-39.69
-34.8048
-27.4896
-19.2253
-11.4773
-5.5124
-2.25987
-2.22975
-5.49231
-11.715
-20.2465
-30.231
-40.7368
-50.8799
-59.9273
-67.37
-72.9592
-76.7042
-78.8372
-79.7536
-79.9366
-79.8784
-80.0086
-80.6378
-81.922
-83.8497
-86.2523
-88.8319
-91.2035
-92.9432
-93.6381
-92.9322
-90.564
-86.3932
-80.4161
-72.7679
-63.7136
-53.6277
-42.9642
-32.221
-21.8991
-12.4625
-4.30127
2.29931
7.1785
10.3088
11.7918
11.8417
10.7591
8.89741
6.62612
4.2946
2.20084
0.567686
-0.470851
-0.872701
-0.680506
-0.00580906
0.992785
2.13441
3.24047
4.15611
4.76624
5.00507
4.85846
4.35991
3.58134
2.62046
1.58672
0.587762
-0.28213
-0.950436
-1.37114
-1.52584
-1.42174
-1.08721
-0.566034
0.0888154
0.821057
1.57599
2.3041
2.96334
3.52009
3.9492
4.23334
4.36199
4.33028
4.13803
3.78887
3.2897
2.65033
1.88336
1.00414
0.0307891
-1.01585
-2.11227
-3.23251
-4.34839
-5.42985
-6.44536
-7.36242
-8.14826
-8.7709
-9.20061
-9.41184
-9.38561
-9.11205
-8.5929
-7.84338
-6.89308
-5.78555
-4.57628
-3.32916
-2.11172
-0.989559
-0.0206187
0.749976
1.29392
1.60203
1.68458
1.56958
1.29937
0.925831
0.504995
0.0916153
-0.265578
-0.527481
-0.666784
-0.668627
-0.529897
-0.257468
0.134185
0.62558
1.19462
1.81853
2.47513
3.1435
3.80415
4.43883
5.0303
5.56219
6.01915
6.38731
6.65506
6.81401
6.85992
6.79352
6.62091
6.35349
6.00727
5.60171
5.15814
4.69786
4.2404
3.80192
3.39408
3.02355
2.69199
2.39671
2.1317
1.88884
1.65922
1.4342
1.20615
0.968786
0.717131
0.447241
0.155829
-0.159978
-0.502601
-0.873585
-1.27281
-1.69745
-2.14087
-2.59177
-3.03381
-3.44586
-3.8032
-4.07936
-4.24873
-4.28955
-4.18706
-3.93634
-3.54455
-3.03232
-2.43383
-1.79568
-1.17426
-0.631745
-0.230986
-0.0294701
-0.0729889
-0.389544
-0.984208
-1.83562
-2.89471
-4.08607
-5.31212
-6.45987
-7.40989
-8.04663
-8.26923
-8.00163
-7.20104
-5.86372
-4.02735
-1.76977
0.796085
3.5305
6.27779
8.87861
11.1825
13.0594
14.4093
15.1694
15.3168
14.8691
13.8807
12.4368
10.6441
8.62162
6.48957
4.35914
2.32289
0.446185
-1.2403
-2.74691
-4.13024
-5.49611
-6.99904
-8.83528
-11.2263
-14.3894
-18.4925
-23.5936
-29.5675
-36.028
-42.2603
-47.1788
-49.3327
-46.9746
-38.2051
-21.1893
5.56915
42.9297
90.8376
148.117
212.382
280.103
346.829
407.574
457.305
491.491
506.633
500.706
473.447
426.452
363.061
288.036
207.091
126.299
51.482
-12.3642
-61.5373
-93.9337
-109.166
-108.485
-94.5306
-70.9443
-41.899
-11.6098
16.121
38.2726
52.8512
58.9967
56.9479
47.8854
33.6805
16.5907
-1.05833
-17.1632
-30.0749
-38.75
-42.8108
-42.5174
-38.6639
-32.4196
-25.1414
-18.1825
-12.7232
-9.64149
-9.43554
-12.2029
-17.6721
-25.2776
-34.2629
-43.7963
-53.083
-61.4585
-68.4548
-73.8327
-77.5809
-79.8856
-81.0769
-81.5637
-81.7642
-82.0434
-82.6636
-83.7529
-85.2939
-87.1315
-88.9979
-90.5487
-91.4063
-91.2052
-89.6339
-86.4705
-81.6092
-75.0752
-67.0272
-57.7487
-47.6266
-37.1215
-26.7297
-16.9423
-8.20415
-0.877262
4.78859
8.67385
10.7949
11.2966
10.433
8.53777
5.989
3.17109
0.438598
-1.91431
-3.67603
-4.72923
-5.0518
-4.70753
-3.82856
-2.5922
-1.19512
0.171651
1.3445
2.20329
2.68054
2.76352
2.4895
1.93579
1.20619
0.415917
-0.322964
-0.914062
-1.28585
-1.397
-1.23771
-0.827478
-0.210017
0.553736
1.39353
2.23767
3.01999
3.68536
4.1933
4.51951
4.65557
4.60692
4.38982
4.02781
3.54813
2.97879
2.34642
1.67518
0.986599
0.300194
-0.365561
-0.992164
-1.56036
-2.05
-2.44062
-2.71277
-2.84989
-2.84051
-2.68039
-2.37429
-1.93701
-1.39351
-0.777893
-0.131336
0.500982
1.07365
1.54519
1.88211
2.06248
2.07853
1.93782
1.66299
1.28983
0.863927
0.436344
0.0586355
-0.222079
-0.367494
-0.351463
-0.161977
0.198378
0.71343
1.35571
2.08963
2.87522
3.67183
4.44151
5.15169
5.7769
6.29947
6.70933
7.00288
7.18144
7.24932
7.21197
7.07449
6.84065
6.5127
6.09186
5.57938
4.97806
4.29367
3.53614
2.7202
1.86523
0.994454
0.133398
-0.692017
-1.45761
-2.14298
-2.73319
-3.21997
-3.60218
-3.8857
-4.08259
-4.20976
-4.28731
-4.33671
-4.37902
-4.43329
-4.51538
-4.63707
-4.80566
-5.02396
-5.29057
-5.60052
-5.94589
-6.31653
-6.70072
-7.08558
-7.45739
-7.80157
-8.1027
-8.34438
-8.5092
-8.5789
-8.53466
-8.35764
-8.02974
-7.53432
-6.85706
-5.98682
-4.91644
-3.64358
-2.17153
-0.509899
1.32478
3.30871
5.41084
7.59326
9.81204
12.0186
14.1614
16.1883
18.0485
19.6957
21.0902
22.2017
23.011
23.5113
23.7087
23.6211
23.2751
22.7014
21.9273
20.9667
19.8088
18.4056
16.6635
14.4404
11.5553
7.81295
3.04908
-2.806
-9.64726
-17.109
-24.4878
-30.6955
-34.2614
-33.4055
-26.1901
-10.7481
14.4322
50.2013
96.4702
152.01
214.379
280.002
344.423
402.698
449.899
481.659
494.69
487.2
459.151
412.317
350.135
277.367
199.605
122.694
52.1361
-7.44826
-52.7462
-82.011
-95.1377
-93.5533
-79.947
-57.8798
-31.3298
-4.22716
19.9633
38.5696
49.9181
53.4061
49.4427
39.2796
24.7617
8.03569
-8.74552
-23.6848
-35.3432
-42.8631
-46.0077
-45.1182
-41.0062
-34.7991
-27.7634
-21.1313
-15.9496
-12.9702
-12.5892
-14.8388
-19.4257
-25.8081
-33.295
-41.1537
-48.7101
-55.4289
-60.9662
-65.1887
-68.1632
-70.1182
-71.3879
-72.3468
-73.3454
-74.6549
-76.4272
-78.6745
-81.2674
-83.9521
-86.3814
-88.1557
-88.8696
-88.1585
-85.7418
-81.4579
-75.2884
-67.3685
-57.983
-47.5468
-36.572
-25.6244
-15.2739
-6.04351
1.63733
7.4701
11.311
13.1789
13.2465
11.8165
9.28538
6.09933
2.70773
-0.480719
-3.13446
-5.02462
-6.03745
-6.1732
-5.53279
-4.29455
-2.68478
-0.945946
0.693633
2.0451
2.97701
3.42451
3.38956
2.93308
2.16088
1.20563
0.207555
-0.70367
-1.42376
-1.88391
-2.05542
-1.94881
-1.60822
-1.10222
-0.512551
0.07747
0.593592
0.978912
1.19913
1.2444
1.12791
0.881777
0.550932
0.186135
-0.163044
-0.454317
-0.657214
-0.755647
-0.74839
-0.647644
-0.476073
-0.262828
-0.0391957
0.165567
0.327696
0.431325
0.469637
0.44476
0.366546
0.25051
0.115277
-0.0200961
-0.138559
-0.227003
-0.277488
-0.287695
-0.260618
-0.203626
-0.127065
-0.042647
0.0381732
0.10561
0.152605
0.175434
0.173865
0.150913
0.112328
0.0659724
0.0212312
-0.0114265
-0.0207112
0.00535083
0.0792857
0.213881
0.421585
0.713509
1.09804
1.57919
2.15497
2.81603
3.54492
4.31627
5.09797
5.85339
6.54447
7.1354
7.59644
7.90739
8.06025
8.06073
7.92826
7.69453
7.40061
7.09292
6.81854
6.62018
6.53158
6.57348
6.75088
7.0517
7.44709
7.89347
8.33611
8.71401
8.96566
9.03508
8.87766
8.46504
7.78869
6.8617
5.71858
4.41304
3.01389
1.59945
0.250862
-0.954987
-1.95223
-2.6919
-3.14622
-3.31101
-3.20588
-2.87246
-2.37069
-1.77388
-1.16288
-0.620144
-0.223932
-0.0432365
-0.133598
-0.533994
-1.26488
-2.32741
-3.70381
-5.35875
-7.24165
-9.28961
-11.4309
-13.5888
-15.687
-17.6552
-19.4378
-21.005
-22.3648
-23.5764
-24.7609
-26.1052
-27.8541
-30.2864
-33.6704
-38.1981
-43.9019
-50.5608
-57.6117
-64.0847
-68.5841
-69.3358
-64.3163
-51.4636
-28.9577
4.45971
49.1733
104.44
168.249
237.329
307.338
373.207
429.633
471.637
495.139
497.46
477.68
436.808
377.736
304.966
224.159
141.556
63.3316
-5.02203
-59.2262
-96.5886
-116.188
-118.852
-106.949
-84.0193
-54.3028
-22.23
8.07177
33.1938
50.7436
59.4991
59.4147
51.4906
37.5352
19.8566
0.929259
-16.9239
-31.7969
-42.3863
-48.0841
-48.9757
-45.7531
-39.5634
-31.8184
-23.9911
-17.4285
-13.1993
-11.9931
-14.0774
-19.3111
-27.2064
-37.0265
-47.901
-58.9448
-69.3634
-78.5346
-86.0582
-91.7714
-95.7341
-98.1863
-99.4897
-100.061
-100.305
-100.562
-101.062
-101.904
-103.051
-104.343
-105.517
-106.245
-106.173
-104.956
-102.303
-98.0024
-91.9548
-84.186
-74.8558
-64.2527
-52.7775
-40.9152
-29.198
-18.1622
-8.30224
-0.0282284
6.36956
10.7449
13.1057
13.6082
12.5373
10.2736
7.25261
3.92029
0.689705
-2.09565
-4.18864
-5.45288
-5.86389
-5.49801
-4.51134
-3.11199
-1.52948
0.014924
1.33344
2.29023
2.81146
2.88681
2.56302
1.93132
1.11083
0.230364
-0.588771
-1.24716
-1.67725
-1.8483
-1.76604
-1.46791
-1.01477
-0.480634
0.0581528
0.532841
0.890146
1.09733
1.14412
1.04161
0.818555
0.515886
0.18021
-0.14265
-0.413359
-0.603332
-0.697195
-0.693318
-0.602552
-0.445543
-0.249087
-0.0421003
0.148243
0.299748
0.397466
0.434805
0.41347
0.342372
0.235737
0.110753
-0.0149069
-0.12536
-0.208322
-0.256275
-0.266899
-0.242819
-0.190749
-0.120209
-0.042033
0.0331334
0.0961541
0.14039
0.162272
0.161421
0.140369
0.103954
0.0585359
0.0111877
-0.0309863
-0.0612773
-0.0734957
-0.0618126
-0.0204288
0.0567659
0.176353
0.345208
0.569892
0.855644
1.20509
1.61687
2.08455
2.59587
3.13281
3.67234
4.18803
4.65231
5.03911
5.32668
5.50011
5.55328
5.48981
5.32303
5.07471
4.77286
4.44872
4.13352
3.85519
3.63577
3.48956
3.42239
3.43193
3.50898
3.63935
3.80607
3.99145
4.17876
4.35326
4.50255
4.61628
4.68541
4.70131
4.65505
4.53709
4.33755
4.04712
3.65848
3.16788
2.57674
1.89266
1.1298
0.308352
-0.546786
-1.40798
-2.24706
-3.03748
-3.75597
-4.38353
-4.90567
-5.31191
-5.5948
-5.7488
-5.76925
-5.6518
-5.39262
-4.98929
-4.44243
-3.75777
-2.94822
-2.03552
-1.05105
-0.0353135
0.964022
1.89538
2.70763
3.35482
3.80079
4.02286
4.01402
3.78332
3.35419
2.76091
2.04314
1.23888
0.375861
-0.538368
-1.52721
-2.65557
-4.03828
-5.84379
-8.28936
-11.6241
-16.0958
-21.8999
-29.1105
-37.5975
-46.9398
-56.3502
-64.6295
-70.1735
-71.0486
-65.1498
-50.4356
-25.2237
11.4884
59.7256
118.315
184.79
255.458
325.643
390.088
443.476
481.014
498.988
495.233
469.434
423.222
360.053
284.864
203.566
122.434
47.4596
-16.2458
-64.9288
-96.5027
-110.657
-108.764
-93.6072
-68.9706
-39.1485
-8.43837
19.3241
41.1354
55.066
60.3558
57.3655
47.4032
32.4584
14.885
-2.92465
-18.8353
-31.2001
-39.0076
-41.9367
-40.32
-35.0326
-27.3262
-18.6355
-10.3829
-3.80668
0.16984
1.01602
-1.3851
-6.76859
-14.5622
-23.9897
-34.1868
-44.3138
-53.6512
-61.6685
-68.061
-72.7529
-75.8719
-77.7001
-78.6113
-79.0043
-79.2408
-79.5944
-80.2177
-81.1272
-82.208
-83.2341
-83.9018
-83.8707
-82.8088
-80.4351
-76.5576
-71.1014
-64.1255
-55.8247
-46.5188
-36.627
-26.6326
-17.0392
-8.32533
-0.900157
4.93305
9.00274
11.2811
11.8812
11.0399
9.0884
6.4155
3.42585
0.499859
-2.04128
-3.96172
-5.12581
-5.50096
-5.14895
-4.20772
-2.86639
-1.33697
0.173768
1.48894
2.48025
3.07904
3.27902
3.13101
2.73109
2.20384
1.68329
1.29385
1.13379
1.2629
1.69589
2.40194
3.31007
4.31947
5.31302
6.17234
6.79218
7.09257
7.02729
6.58788
5.80295
4.73321
3.4631
2.09013
0.713539
-0.576583
-1.70823
-2.6337
-3.3324
-3.81025
-4.09579
-4.23388
-4.27763
-4.27997
-4.2857
-4.32531
-4.41113
-4.53643
-4.67736
-4.7976
-4.85475
-4.80759
-4.62319
-4.28268
-3.78492
-3.14754
-2.40511
-1.6047
-0.799527
-0.0413715
0.626934
1.17796
1.60403
1.91879
2.15557
2.36286
2.59733
2.91544
3.36484
3.97683
4.76105
5.7032
6.76613
7.89425
9.02065
10.0758
10.9967
11.7348
12.2626
12.5764
12.6965
12.6635
12.5332
12.3679
12.2287
12.1673
12.2198
12.4023
12.7101
13.1187
13.5883
14.0692
14.509
14.8593
15.0816
15.152
15.0638
14.827
14.4665
14.0179
13.5216
13.0172
12.5372
12.1027
11.7201
11.38
11.059
10.7219
10.3274
9.83281
9.20049
8.40301
7.42752
6.27849
4.97854
3.56734
2.09852
0.635132
-0.75595
-2.01007
-3.07067
-3.89433
-4.45472
-4.74487
-4.7778
-4.58536
-4.21557
-3.72847
-3.19102
-2.67136
-2.23289
-1.92864
-1.79639
-1.85501
-2.10237
-2.51503
-3.04982
-3.64731
-4.23682
-4.74272
-5.09148
-5.21891
-5.07691
-4.63914
-3.90505
-2.90169
-1.68309
-0.327075
1.07042
2.40294
3.56251
4.44909
4.97959
5.09542
4.76778
4.00006
2.82703
1.31096
-0.464971
-2.4053
-4.41231
-6.3968
-8.28947
-10.0523
-11.6898
-13.2584
-14.8725
-16.7048
-18.9754
-21.9282
-25.7899
-30.7121
-36.6962
-43.5116
-50.6168
-57.1008
-61.6658
-62.6682
-58.2327
-46.4413
-25.5875
5.53265
47.3305
99.186
159.307
224.727
291.459
354.808
409.814
451.764
476.73
482.038
466.619
431.188
378.215
311.701
236.778
159.181
84.6621
18.417
-35.4147
-74.1085
-96.5459
-103.218
-96.0552
-78.1061
-53.1233
-25.1004
2.17726
25.5184
42.6084
52.1656
53.9625
48.7245
37.928
23.5323
7.68452
-7.56528
-20.505
-29.933
-35.2489
-36.4592
-34.1077
-29.1461
-22.7674
-16.2273
-10.6773
-7.02862
-5.86155
-7.38676
-11.458
-17.6289
-25.2424
-33.5374
-41.7567
-49.2431
-55.5119
-60.2925
-63.5373
-65.4007
-66.1926
-66.3166
-66.2006
-66.2321
-66.703
-67.7723
-69.4482
-71.5906
-73.9311
-76.1086
-77.7131
-78.3352
-77.6142
-75.2816
-71.1941
-65.3552
-57.9216
-49.1931
-39.5896
-29.6137
-19.8055
-10.6931
-2.74402
3.67672
8.33776
11.1583
12.2092
11.6987
9.94449
7.33633
4.29299
1.2192
-1.53299
-3.69421
-5.09656
-5.67981
-5.4853
-4.63927
-3.32845
-1.77137
-0.189083
1.22119
2.30674
2.97254
3.18605
2.97404
2.41255
1.61206
0.7
-0.196818
-0.967786
-1.53039
-1.83734
-1.87852
-1.67819
-1.28816
-0.778314
-0.225893
0.294947
0.722098
1.01196
1.14292
1.11565
0.950655
0.683539
0.358914
0.0238289
-0.278402
-0.513243
-0.658337
-0.70501
-0.657899
-0.532947
-0.354189
-0.149863
0.051583
0.225099
0.351819
0.420773
0.429429
0.383112
0.293497
0.176465
0.0496588
-0.0699263
-0.168009
-0.234534
-0.26448
-0.257963
-0.219653
-0.157656
-0.0819917
-0.0028341
0.0713381
0.135513
0.189653
0.239725
0.29802
0.382579
0.515618
0.721014
1.02105
1.43279
1.96464
2.61348
3.36297
4.18327
5.03232
5.85876
6.60602
7.21751
7.64205
7.83932
7.78453
7.47183
6.91611
6.15285
5.23595
4.23375
3.22349
2.2847
1.4922
0.909305
0.581885
0.533895
0.764838
1.24946
1.93979
2.76928
3.65889
4.52423
5.28333
5.86406
6.21047
6.28739
6.08286
5.60808
4.89502
3.99192
2.95748
1.85427
0.742345
-0.326235
-1.31136
-2.18699
-2.94129
-3.57493
-4.09803
-4.52604
-4.87532
-5.15894
-5.38322
-5.5454
-5.63278
-5.62344
-5.4884
-5.19526
-4.71277
-4.01607
-3.09183
-1.94289
-0.591476
0.919414
2.52683
4.15117
5.70163
7.08345
8.20633
8.99285
9.38625
9.35643
8.9035
8.05833
6.87993
5.44988
3.86419
2.22326
0.620595
-0.869132
-2.2023
-3.37833
-4.45064
-5.53532
-6.81509
-8.53547
-10.9892
-14.4847
-19.2966
-25.5961
-33.3659
-42.3081
-51.759
-60.6307
-67.4013
-70.1737
-66.8167
-55.1884
-33.4267
-0.274727
44.6064
100.391
164.958
234.922
305.831
372.537
429.693
472.317
496.364
499.215
480.021
439.852
381.636
309.873
230.184
148.726
71.5651
4.06749
-49.6059
-86.8567
-106.817
-110.316
-99.6688
-78.3111
-50.3397
-20.0172
8.6998
32.556
49.2764
57.7061
57.8082
50.5326
37.5841
21.1268
3.4675
-13.2421
-27.251
-37.3768
-43.0847
-44.4771
-42.2054
-37.3221
-31.1003
-24.8453
-19.7238
-16.6295
-16.1001
-18.2879
-22.985
-29.6914
-37.7133
-46.2766
-54.6364
-62.1711
-68.4483
-73.2585
-76.6132
-78.7141
-79.8985
-80.5715
-81.1345
-81.9217
-83.1491
-84.885
-87.0414
-89.3867
-91.5767
-93.1985
-93.8222
-93.0534
-90.582
-86.2213
-79.9348
-71.8476
-62.2411
-51.5323
-40.2389
-28.9346
-18.1974
-8.55913
-0.457715
5.79913
10.0577
12.326
12.7652
11.6663
9.41475
6.44775
3.20877
0.10462
-2.53038
-4.45992
-5.55859
-5.81197
-5.30469
-4.19905
-2.70726
-1.06101
0.517792
1.84206
2.77775
3.25389
3.26397
2.85951
2.13739
1.22302
0.251976
-0.647551
-1.36939
-1.8396
-2.02152
-1.91567
-1.55509
-0.997402
-0.314971
0.415266
1.121
1.74177
2.23358
2.57085
2.7459
2.76643
2.65181
2.4287
2.12674
1.77489
1.39852
1.01772
0.646538
0.293287
-0.0385231
-0.348736
-0.63892
-0.910779
-1.16479
-1.39926
-1.60987
-1.78974
-1.93013
-2.02153
-2.05507
-2.02407
-1.92545
-1.76084
-1.53705
-1.26603
-0.964064
-0.650427
-0.345566
-0.0691078
0.162099
0.335666
0.444874
0.489292
0.474791
0.412953
0.319966
0.215085
0.118773
0.0506587
0.0274785
0.0611832
0.157432
0.314663
0.523897
0.76936
1.02991
1.28117
1.4981
1.65782
1.74225
1.74026
1.64918
1.47536
1.23375
0.946684
0.641824
0.349645
0.100699
-0.0770583
-0.160601
-0.133629
0.0123121
0.277439
0.654041
1.1274
1.67716
2.27908
2.90683
3.53386
4.13511
4.68838
5.17548
5.58286
5.90192
6.12886
6.26416
6.31175
6.27793
6.17016
5.9958
5.76104
5.47007
5.1246
4.72396
4.26561
3.74631
3.1637
2.51821
1.81502
1.06585
0.290051
-0.485003
-1.2247
-1.88903
-2.43549
-2.82276
-3.01485
-2.98516
-2.72021
-2.22232
-1.51111
-0.6235
0.387924
1.45802
2.51355
3.47857
4.28022
4.85449
5.15114
5.13744
4.80034
4.14674
3.20201
2.00671
0.611852
-0.927548
-2.56044
-4.24953
-5.98266
-7.78489
-9.72958
-11.9453
-14.6147
-17.9603
-22.2126
-27.5588
-34.0698
-41.6137
-49.7637
-57.7196
-64.2624
-67.7654
-66.2809
-57.7099
-40.0523
-11.7145
28.1649
79.4204
140.653
209.158
281.021
351.394
414.923
466.29
500.798
514.931
506.793
476.388
425.682
358.44
279.86
196.04
113.349
37.7801
-25.6354
-73.2954
-103.312
-115.596
-111.741
-94.7293
-68.5048
-37.4729
-5.98911
22.1034
43.8375
57.3531
61.9795
58.1737
47.3347
31.5282
13.1616
-5.34444
-21.8515
-34.7313
-43.0073
-46.4013
-45.2896
-40.5841
-33.5605
-25.6606
-18.2963
-12.6785
-9.68994
-9.81254
-13.1122
-19.2764
-27.6944
-37.5647
-48.013
-58.2063
-67.447
-75.2397
-81.3235
-85.6718
-88.4613
-90.0194
-90.7574
-91.1014
-91.4276
-92.0117
-92.995
-94.3707
-95.9899
-97.5844
-98.8022
-99.2521
-98.5504
-96.3676
-92.4684
-86.7424
-79.2239
-70.0968
-59.685
-48.4295
-36.8527
-25.5139
-14.9607
-5.68059
1.94191
7.6572
11.3692
13.1382
13.1674
11.7764
9.36321
6.36115
3.19449
0.238418
-2.21261
-3.96511
-4.93393
-5.13708
-4.67948
-3.72868
-2.48608
-1.15746
0.073665
1.0669
1.73815
2.06431
2.07963
1.86503
1.5323
1.20562
1.00283
1.01887
1.31334
1.90321
2.76146
3.82126
4.98483
6.13575
7.15278
7.92375
8.35766
8.39386
8.00731
7.20978
6.04706
4.59282
2.94013
1.19166
-0.550201
-2.19222
-3.65747
-4.89003
-5.85702
-6.54813
-6.97283
-7.15597
-7.13244
-6.94167
-6.62262
-6.20999
-5.73184
-5.20885
-4.655
-4.07937
-3.4885
-2.88886
-2.28882
-1.69986
-1.13676
-0.616801
-0.158139
0.222329
0.511222
0.700651
0.789602
0.784475
0.698708
0.551518
0.365932
0.166381
-0.0238393
-0.184895
-0.30226
-0.367848
-0.380344
-0.344712
-0.271021
-0.172753
-0.0648575
0.0381916
0.124106
0.184057
0.213417
0.211919
0.183288
0.134443
0.0744227
0.0131802
-0.039572
-0.0753406
-0.0875507
-0.0719175
-0.0264982
0.0485168
0.151181
0.278225
0.42544
0.587946
0.760305
0.936517
1.10995
1.27332
1.4188
1.53839
1.62455
1.67113
1.67443
1.63429
1.55486
1.445
1.31795
1.19025
1.07999
1.00453
0.977935
1.00865
1.09768
1.23756
1.41247
1.59935
1.77002
1.89407
1.94224
1.88982
1.71981
1.42548
1.012
0.497162
-0.0890667
-0.705902
-1.30405
-1.82874
-2.22321
-2.4326
-2.40781
-2.10919
-1.50977
-0.597847
0.621235
2.1244
3.87117
5.80528
7.85734
9.94869
11.9962
13.9174
15.6363
17.0886
18.2258
19.0187
19.4585
19.557
19.3437
18.8623
18.1662
17.3124
16.3563
15.3461
14.3167
13.2841
12.2377
11.1331
9.88388
8.35647
6.36966
3.70392
0.124673
-4.57672
-10.5227
-17.6726
-25.7361
-34.0918
-41.7283
-47.2307
-48.8317
-44.5405
-32.3527
-10.5246
22.1162
65.8702
119.925
182.228
249.505
317.448
381.07
435.181
474.946
496.439
497.131
476.233
434.848
375.914
303.92
224.459
143.641
67.4674
1.22417
-51.0249
-86.7903
-105.318
-107.55
-95.9003
-73.8822
-45.6396
-15.4464
12.7674
35.8089
51.4952
58.7839
57.76
49.4925
35.7917
18.9046
1.19198
-15.1731
-28.45
-37.4966
-41.8422
-41.6716
-37.7283
-31.1604
-23.3328
-15.6329
-9.2962
-5.26886
-4.12315
-6.02851
-10.7765
-17.8505
-26.5253
-35.9821
-45.4205
-54.1555
-61.6867
-67.7363
-72.2521
-75.3815
-77.4212
-78.7524
-79.7727
-80.8314
-82.1779
-83.9287
-86.0534
-88.3818
-90.6277
-92.4265
-93.3807
-93.1079
-91.2874
-87.6995
-82.2545
-75.01
-66.1724
-56.0848
-45.2013
-34.0486
-23.1817
-13.1345
-4.37346
2.74341
7.99546
11.3148
12.7861
12.6307
11.1782
8.8276
6.00425
3.11637
0.516502
-1.52817
-2.85394
-3.40586
-3.23058
-2.45855
-1.27851
0.0921489
1.43731
2.56894
3.34788
3.69681
3.60454
3.12185
2.35016
1.4249
0.49605
-0.291662
-0.816351
-0.99257
-0.779503
-0.183238
0.746644
1.92529
3.24418
4.58449
5.83037
6.88069
7.65786
8.11317
8.22818
8.01266
7.4996
6.73843
5.78743
4.70645
3.55086
2.36719
1.1909
0.0461122
-1.05292
-2.09918
-3.08962
-4.022
-4.89218
-5.69235
-6.41041
-7.03036
-7.53371
-7.90154
-8.11683
-8.16677
-8.04478
-7.75181
-7.29711
-6.69808
-5.97958
-5.1725
-4.312
-3.43528
-2.57929
-1.77838
-1.06208
-0.453142
0.0340372
0.394441
0.632819
0.763279
0.80808
0.795657
0.758046
0.727966
0.735866
0.807268
0.960698
1.20639
1.54589
1.97255
2.47274
3.02772
3.61578
4.21451
4.80277
5.36236
5.87905
6.3429
6.74814
7.09234
7.3755
7.59889
7.76409
7.87231
7.92403
7.91909
7.85708
7.73796
7.56283
7.33453
7.0582
6.74145
6.39433
6.0289
5.65863
5.29748
4.95896
4.655
4.39504
4.1851
4.02716
3.91883
3.85317
3.81897
3.80114
3.78144
3.73932
3.65305
3.50095
3.26279
2.92126
2.4634
1.88192
1.17621
0.352997
-0.573542
-1.58213
-2.64525
-3.73049
-4.8021
-5.82278
-6.75548
-7.56504
-8.21965
-8.69207
-8.96059
-9.00983
-8.83144
-8.42472
-7.7973
-6.96565
-5.95557
-4.80227
-3.55004
-2.25124
-0.96452
0.247884
1.32353
2.20381
2.83826
3.18866
3.23263
2.96608
2.40427
1.58117
0.546999
-0.635905
-1.89857
-3.17202
-4.39454
-5.51963
-6.52435
-7.41812
-8.25139
-9.12311
-10.1848
-11.6382
-13.7223
-16.6861
-20.7438
-26.0119
-32.4302
-39.6772
-47.0916
-53.62
-57.8118
-57.8799
-51.8405
-37.7301
-13.8861
20.7436
66.3062
121.817
185.052
252.591
320.031
382.362
434.457
471.632
490.189
487.879
464.214
420.583
360.155
287.573
208.478
128.93
54.7838
-8.89692
-58.3153
-91.2603
-107.236
-107.391
-94.2786
-71.4671
-43.0761
-13.2829
14.1338
36.1649
50.8197
57.2342
55.6381
47.1989
33.7712
17.5928
0.9674
-14.0263
-25.7655
-33.2345
-36.0843
-34.6051
-29.6229
-22.3407
-14.1513
-6.44528
-0.44005
2.95317
3.21071
0.222615
-5.73437
-14.0678
-23.9716
-34.5432
-44.9002
-54.2817
-62.1245
-68.1062
-72.154
-74.422
-75.2416
-75.056
-74.3466
-73.5618
-73.0575
-73.0544
-73.6152
-74.6446
-75.9078
-77.0656
-77.7212
-77.4716
-75.9604
-72.9238
-68.2271
-61.8867
-54.0756
-45.1121
-35.4322
-25.5489
-16.0035
-7.31282
0.0797496
5.84564
9.79945
11.9117
12.3046
11.2327
9.05008
6.16882
3.01451
-0.0172414
-2.59763
-4.49147
-5.57154
-5.81992
-5.31716
-4.22154
-2.74168
-1.10638
0.46469
1.78602
2.72454
3.20958
3.23436
2.84952
2.15041
1.26043
0.312621
-0.567785
-1.27801
-1.74799
-1.94544
-1.87574
-1.5771
-1.11222
-0.557768
0.00673465
0.509158
0.893007
1.12281
1.18627
1.09336
0.8726
0.565536
0.220097
-0.116111
-0.401744
-0.606251
-0.712559
-0.717773
-0.632029
-0.475825
-0.276337
-0.0632895
0.135056
0.295299
0.401327
0.445563
0.429013
0.360225
0.253409
0.12605
-0.00364192
-0.119099
-0.207307
-0.260061
-0.274489
-0.252846
-0.201674
-0.130503
-0.0502633
0.0283824
0.0966238
0.148845
0.183588
0.204027
0.217847
0.236505
0.273889
0.344485
0.461279
0.633653
0.865609
1.15461
1.49126
1.85995
2.24041
2.60994
2.94612
3.22946
3.44581
3.58807
3.65707
3.66161
3.61762
3.54662
3.47385
3.42601
3.42917
3.50674
3.67783
3.956
4.34842
4.85539
5.47028
6.17965
6.96363
7.79655
8.64777
9.48279
10.2646
10.9555
11.5184
11.9193
12.129
12.125
11.893
11.4281
10.7356
9.83119
8.73987
7.49509
6.13672
4.70879
3.25699
1.82625
0.458402
-0.809735
-1.94779
-2.93273
-3.74916
-4.38894
-4.85029
-5.13632
-5.2534
-5.20944
-5.01247
-4.66975
-4.18762
-3.57214
-2.83051
-1.9729
-1.0145
0.0227517
1.10908
2.20676
3.27124
4.25335
5.10256
5.77087
6.21693
6.40985
6.3323
5.98245
5.37444
4.53734
3.51269
2.35071
1.10568
-0.169415
-1.42891
-2.64128
-3.79711
-4.91842
-6.0686
-7.3615
-8.96652
-11.1055
-14.0366
-18.0197
-23.2618
-29.841
-37.6168
-46.1363
-54.5565
-61.6033
-65.5899
-64.514
-56.24
-38.7609
-10.5135
29.2935
80.3902
141.252
209.047
279.759
348.481
409.868
458.688
490.411
501.746
491.068
458.657
406.729
339.236
261.473
179.526
99.6417
27.5959
-31.8768
-75.5097
-101.753
-110.823
-104.548
-86.0561
-59.3332
-28.7258
1.55893
27.893
47.5636
58.973
61.6927
56.3775
44.5626
28.38
10.234
-7.52052
-22.8588
-34.2975
-41.0169
-42.8895
-40.4205
-34.6176
-26.8122
-18.4608
-10.9512
-5.43893
-2.72915
-3.21457
-6.871
-13.3045
-21.8387
-31.6276
-41.7758
-51.452
-59.981
-66.9064
-72.0179
-75.3445
-77.1185
-77.7163
-77.5878
-77.1833
-76.8868
-76.9656
-77.5381
-78.5641
-79.8562
-81.1092
-81.943
-81.954
-80.7673
-78.087
-73.7356
-67.6817
-60.0511
-51.1209
-41.2971
-31.0781
-21.0081
-11.6249
-3.4096
3.25854
8.13538
11.1306
12.3098
11.8806
10.1644
7.5577
4.48836
1.37094
-1.43303
-3.64605
-5.09408
-5.71294
-5.54225
-4.70842
-3.39976
-1.83727
-0.244796
1.17774
2.27539
2.95156
3.17284
2.96579
2.40678
1.60695
0.694553
-0.20282
-0.973937
-1.5359
-1.8413
-1.88015
-1.67702
-1.28413
-0.771798
-0.217631
0.303972
0.730809
1.01935
1.14818
1.11829
0.950539
0.680877
0.354223
0.0178394
-0.284856
-0.519337
-0.663362
-0.708451
-0.659484
-0.532659
-0.352244
-0.146664
0.0555178
0.22921
0.35558
0.423753
0.431339
0.383824
0.293047
0.175029
0.0475184
-0.0724307
-0.170527
-0.236746
-0.266131
-0.258852
-0.21958
-0.156284
-0.0786393
0.00375793
0.0831242
0.154958
0.219043
0.279856
0.346308
0.430856
0.548077
0.712867
0.938478
1.2346
1.60576
2.05015
2.55923
3.1179
3.70561
4.29798
4.86896
5.39318
5.84833
6.21717
6.48906
6.6609
6.73728
6.72998
6.65693
6.54055
6.40583
6.27812
6.18093
6.13372
6.14999
6.23576
6.38855
6.59711
6.84183
7.09595
7.32749
7.50173
7.58403
7.54293
7.35307
6.99782
6.47128
5.77952
4.94077
3.98449
2.94936
1.88022
0.824296
-0.173032
-1.07247
-1.84454
-2.47239
-2.95322
-3.29809
-3.52999
-3.68023
-3.78366
-3.87312
-3.97388
-4.0988
-4.24497
-4.39223
-4.50406
-4.5309
-4.41557
-4.1004
-3.53525
-2.68561
-1.53974
-0.113975
1.54458
3.35854
5.22407
7.01801
8.60765
9.8624
10.666
10.9278
10.5926
9.64628
8.11843
6.07976
3.63594
0.917497
-1.93326
-4.77742
-7.49607
-10.0073
-12.2825
-14.3596
-16.3509
-18.4426
-20.881
-23.9433
-27.8888
-32.8919
-38.9586
-45.8368
-52.9322
-59.2497
-63.3805
-63.5548
-57.7737
-44.0204
-20.5385
13.8541
59.4599
115.457
179.765
249.065
318.987
384.467
440.226
481.341
503.802
505.015
484.147
442.292
382.41
309.055
227.915
145.23
67.146
-0.896689
-54.6888
-91.6174
-110.841
-113.258
-101.292
-78.5095
-49.1556
-17.6341
11.9783
36.3427
53.1472
61.2521
60.6859
52.507
38.56
21.1644
2.78145
-14.3003
-28.2245
-37.7463
-42.3175
-42.0778
-37.7632
-30.5516
-21.8697
-13.1917
-5.85238
-0.897887
1.01196
-0.35627
-4.82641
-11.878
-20.7467
-30.5441
-40.3793
-49.4677
-57.2139
-63.262
-67.5094
-70.0872
-71.3115
-71.6162
-71.4768
-71.3355
-71.5377
-72.2861
-73.6168
-75.3991
-77.3568
-79.1068
-80.2109
-80.2331
-78.7965
-75.6336
-70.6236
-63.8146
-55.4255
-45.8301
-35.5234
-25.0747
-15.0714
-6.06238
1.49578
7.28071
11.1318
13.0592
13.2345
11.9636
9.64736
6.73288
3.66357
0.832614
-1.4543
-3.00326
-3.7414
-3.71111
-3.05099
-1.96697
-0.697826
0.519993
1.48388
2.04915
2.1433
1.76938
0.998995
-0.0432129
-1.20087
-2.30959
-3.2198
-3.81561
-4.02754
-3.83805
-3.27956
-2.42613
-1.38038
-0.257865
0.828536
1.78226
2.53293
3.04155
3.30074
3.33069
3.17182
2.87567
2.49568
2.07914
1.66149
1.26355
0.891665
0.540531
0.197703
-0.151008
-0.516356
-0.901591
-1.30013
-1.6953
-2.06211
-2.37069
-2.59081
-2.69665
-2.67111
-2.50901
-2.21856
-1.82106
-1.34883
-0.841587
-0.341992
0.109195
0.477588
0.738755
0.880467
0.903396
0.820257
0.653582
0.432489
0.188911
-0.0462252
-0.246369
-0.39189
-0.471504
-0.482467
-0.429595
-0.323329
-0.177217
-0.00524675
0.180515
0.371601
0.56389
0.757348
0.954874
1.16049
1.3773
1.60555
1.84131
2.07602
2.29697
2.48886
2.63603
2.72515
2.74784
2.70283
2.59718
2.44645
2.27355
2.1065
1.97534
1.90848
1.92916
2.05231
2.28237
2.61223
3.02359
3.48858
3.97252
4.43752
4.84647
5.16702
5.37502
5.45707
5.41185
5.25004
4.99283
4.66929
4.31279
3.95696
3.63167
3.35941
3.15249
3.01132
2.92396
2.86691
2.80714
2.70505
2.51825
2.20573
1.7322
1.07221
0.213794
-0.838775
-2.06331
-3.41945
-4.84994
-6.28353
-7.63939
-8.83273
-9.78137
-10.4125
-10.6695
-10.5172
-9.94649
-8.97652
-7.65454
-6.05363
-4.2678
-2.40528
-0.580336
1.09565
2.52284
3.62065
4.33378
4.6358
4.53033
4.0493
3.24884
2.20293
0.995416
-0.289008
-1.57464
-2.80498
-3.95321
-5.03254
-6.10552
-7.29065
-8.76344
-10.7486
-13.4994
-17.2598
-22.2091
-28.3885
-35.6165
-43.404
-50.8868
-56.7938
-59.4747
-57.0007
-47.3456
-28.64
0.527112
40.798
91.7786
151.864
218.203
286.827
352.948
411.398
457.165
485.954
494.708
481.998
448.25
395.757
328.472
251.619
171.151
93.1378
23.1501
-34.2832
-76.0827
-100.85
-108.9
-102.107
-83.5855
-57.2594
-27.3722
1.99628
27.3542
46.1174
56.7958
59.0372
53.5348
41.8239
26.0012
8.40674
-8.68736
-23.3476
-34.1789
-40.4369
-42.0488
-39.5489
-33.9462
-26.5473
-18.7613
-11.9127
-7.08508
-5.01144
-6.01971
-10.0351
-16.6326
-25.1269
-34.6859
-44.4489
-53.6359
-61.6331
-68.0483
-72.7302
-75.7555
-77.3866
-78.0107
-78.0687
-77.9846
-78.1051
-78.6547
-79.7122
-81.2067
-82.9348
-84.5913
-85.8114
-86.2169
-85.4615
-83.2717
-79.4784
-74.0376
-67.0397
-58.7049
-49.3671
-39.4475
-29.4193
-19.7684
-10.9513
-3.35747
2.72281
7.12086
9.79977
10.852
10.4845
8.99364
6.73232
4.07354
1.37423
-1.05686
-2.98386
-4.25902
-4.82747
-4.72164
-4.04701
-2.9613
-1.65012
-0.302013
0.914119
1.86697
2.4745
2.70863
2.59299
2.19468
1.6116
0.957153
0.344451
-0.128088
-0.388124
-0.396697
-0.15091
0.317966
0.950371
1.66735
2.38121
3.00654
3.47034
3.72002
3.72863
3.49662
3.05033
2.43746
1.72017
0.966914
0.243867
-0.392783
-0.902872
-1.2659
-1.48192
-1.56977
-1.56288
-1.50343
-1.43565
-1.39915
-1.42316
-1.52256
-1.69595
-1.92627
-2.1836
-2.42976
-2.62414
-2.72967
-2.71832
-2.57523
-2.30092
-1.91142
-1.43619
-0.914257
-0.389014
0.0976201
0.510929
0.828269
1.04244
1.16305
1.21567
1.23879
1.27889
1.38425
1.5983
1.95326
2.46506
3.13018
3.92485
4.80678
5.71933
6.59757
7.37548
7.99361
8.40594
8.58539
8.52713
8.24935
7.7914
7.20968
6.57162
5.94873
5.40939
5.01234
4.80139
4.80193
5.01949
5.44027
6.03332
6.75421
7.54948
8.36146
9.13303
9.81186
10.3537
10.7249
10.9033
10.8783
10.6498
10.227
9.62544
8.86561
7.97041
6.96366
5.8689
4.70873
3.50452
2.27655
1.04428
-0.17338
-1.35788
-2.4911
-3.5558
-4.53623
-5.41902
-6.19409
-6.85525
-7.40051
-7.83179
-8.154
-8.37373
-8.49753
-8.53027
-8.47377
-8.32592
-8.08061
-7.72839
-7.2579
-6.65798
-5.92015
-5.04127
-4.02597
-2.88866
-1.65467
-0.360339
0.948116
2.21691
3.38818
4.40422
5.2122
5.76878
6.04411
6.02482
5.71564
5.13937
4.33527
3.35577
2.26143
1.11413
-0.0317916
-1.14027
-2.20594
-3.26711
-4.41731
-5.81244
-7.66949
-10.2526
-13.8423
-18.6852
-24.925
-32.5175
-41.1409
-50.1146
-58.3459
-64.3272
-66.2
-61.8996
-49.3796
-26.8972
6.67042
51.5277
106.732
170.083
238.169
306.583
370.293
424.143
463.404
484.323
484.581
463.605
422.687
364.886
294.726
217.731
139.851
66.8504
3.73119
-45.7329
-79.3118
-96.4462
-98.1839
-86.9433
-66.1426
-39.7465
-11.7902
14.0638
34.8854
48.7195
54.693
52.9863
44.6852
31.5432
15.6906
-0.669308
-15.5388
-27.3489
-35.1052
-38.4479
-37.6258
-33.3998
-26.8919
-19.407
-12.2507
-6.56679
-3.21337
-2.68695
-5.10046
-10.2111
-17.4889
-26.2134
-35.5822
-44.817
-53.2547
-60.4119
-66.0201
-70.029
-72.5818
-73.9685
-74.5653
-74.77
-74.9412
-75.3476
-76.1351
-77.311
-78.7472
-80.2005
-81.3456
-81.817
-81.2552
-79.3522
-75.8909
-70.7766
-64.0549
-55.9158
-46.6824
-36.7852
-26.7249
-17.0268
-8.19208
-0.651744
5.27284
9.39735
11.6875
12.2563
11.3462
9.29896
6.51613
3.41625
0.392563
-2.22349
-4.18943
-5.36711
-5.72557
-5.33184
-4.33185
-2.9245
-1.33243
0.226852
1.56605
2.54695
3.09137
3.18383
2.86644
2.2274
1.38527
0.471205
-0.388422
-1.08704
-1.549
-1.73594
-1.64798
-1.32032
-0.81587
-0.215179
0.394876
0.932335
1.32994
1.54242
1.55062
1.36207
1.00836
0.539677
0.017476
-0.493681
-0.934098
-1.25576
-1.42728
-1.43655
-1.29094
-1.01528
-0.647924
-0.23557
0.172604
0.530725
0.801307
0.959086
0.993222
0.90771
0.720016
0.458217
0.15705
-0.14658
-0.418069
-0.629014
-0.760101
-0.802701
-0.759054
-0.641111
-0.468253
-0.264248
-0.0538584
0.140454
0.301324
0.41847
0.489672
0.520689
0.524172
0.517769
0.521695
0.556092
0.638519
0.781894
0.993116
1.27251
1.61416
2.00689
2.43593
2.88473
3.33679
3.77728
4.19411
4.57855
4.92523
5.23173
5.4978
5.72446
5.91308
6.0645
6.17846
6.25319
6.28541
6.27043
6.20273
6.07656
5.88678
5.62972
5.30405
4.91145
4.4572
3.95037
3.40382
2.83376
2.25905
1.70008
1.17747
0.710457
0.315336
0.00383382
-0.218212
-0.351827
-0.405357
-0.394321
-0.340636
-0.271235
-0.216178
-0.20639
-0.271195
-0.435826
-0.719093
-1.13139
-1.67318
-2.33409
-3.09273
-3.91719
-4.76641
-5.59215
-6.34175
-6.96137
-7.3997
-7.61185
-7.56308
-7.23228
-6.61459
-5.72306
-4.5889
-3.26036
-1.80007
-0.28118
1.21755
2.61709
3.84363
4.8335
5.53734
5.92308
5.97749
5.70625
5.13257
4.29434
3.24001
2.02318
0.695756
-0.700487
-2.14388
-3.64413
-5.25365
-7.07677
-9.27347
-12.0535
-15.656
-20.3118
-26.1849
-33.2965
-41.4377
-50.0825
-58.3195
-64.823
-67.8843
-65.5186
-55.6544
-36.3945
-6.32492
35.1712
87.6446
149.408
217.507
287.857
355.553
415.319
462.057
491.419
500.33
487.385
453.072
399.776
331.565
253.782
172.494
93.8632
23.5199
-33.9834
-75.5838
-99.9337
-107.427
-100.032
-80.9601
-54.2206
-24.1228
5.2167
30.3011
48.5724
58.5923
60.078
53.7996
41.3664
24.9362
6.89165
-10.4761
-25.2369
-36.0191
-42.1156
-43.4982
-40.7459
-34.9063
-27.3137
-19.3916
-12.4651
-7.60602
-5.52636
-6.52813
-10.5104
-17.0261
-25.3763
-34.7258
-44.2231
-53.1087
-60.7994
-66.9392
-71.4152
-74.3392
-76.001
-76.8029
-77.1864
-77.5599
-78.2387
-79.4028
-81.0759
-83.1274
-85.2936
-87.2152
-88.4846
-88.6968
-87.4992
-84.6345
-79.9728
-73.5304
-65.4741
-56.1106
-45.8616
-35.2281
-24.7468
-14.9429
-6.28464
0.857341
6.23937
9.76202
11.4726
11.5533
10.2967
8.07143
5.28243
2.32996
-0.427926
-2.70575
-4.31094
-5.15264
-5.23895
-4.66381
-3.58588
-2.2025
-0.722174
0.661212
1.78969
2.556
2.91082
2.86243
2.46962
1.82918
1.0602
0.287168
-0.375957
-0.838902
-1.04414
-0.971157
-0.635847
-0.0855098
0.609497
1.36618
2.09991
2.73464
3.21109
3.49212
3.56491
3.43989
3.14689
2.72929
2.23702
1.71943
1.21904
0.766757
0.379229
0.0584151
-0.206664
-0.43639
-0.655835
-0.889574
-1.1568
-1.46742
-1.81961
-2.19932
-2.58157
-2.93354
-3.21889
-3.40287
-3.45723
-3.36456
-3.12116
-2.73824
-2.2412
-1.66701
-1.06027
-0.468211
0.0645137
0.500695
0.814405
0.993373
1.03964
0.968481
0.80574
0.584137
0.338947
0.103751
-0.0932267
-0.231721
-0.300713
-0.298327
-0.230478
-0.108575
0.0532822
0.241162
0.443765
0.65414
0.87043
1.09559
1.33616
1.6003
1.8955
2.22622
2.59206
2.98654
3.39691
3.80492
4.1885
4.52396
4.78864
4.96331
5.03429
4.99485
4.8458
4.59536
4.2582
3.85394
3.40523
2.93562
2.46746
2.02001
1.60804
1.2409
0.922333
0.650895
0.420938
0.224025
0.0505228
-0.108839
-0.261678
-0.413108
-0.565421
-0.718309
-0.869545
-1.01598
-1.15469
-1.28403
-1.40458
-1.51967
-1.63564
-1.76162
-1.90895
-2.09015
-2.31766
-2.60222
-2.95107
-3.3662
-3.8427
-4.3674
-4.91824
-5.4643
-5.9667
-6.38052
-6.65751
-6.74943
-6.61199
-6.20874
-5.51508
-4.52155
-3.23659
-1.68804
0.0766676
1.99187
3.97666
5.93948
7.78388
9.41529
10.7479
11.7116
12.2572
12.3613
12.0278
11.2886
10.2013
8.84424
7.31075
5.70032
4.10842
2.61461
1.26904
0.0785932
-1.00606
-2.09974
-3.38493
-5.10257
-7.52761
-10.9261
-15.4929
-21.274
-28.0788
-35.3986
-42.3455
-47.6335
-49.6195
-46.4175
-36.0882
-16.8923
12.4177
52.3097
102.232
160.471
224.145
289.352
351.471
405.594
447.034
471.854
477.337
462.346
427.505
375.191
309.321
234.963
157.817
83.6312
17.6241
-36.0206
-74.5269
-96.7277
-103.081
-95.5047
-77.0632
-51.5485
-23.0128
4.6893
28.2974
45.4392
54.7948
56.1257
50.1754
38.4663
23.0266
6.08725
-10.213
-24.0788
-34.2402
-40.0506
-41.4974
-39.1329
-33.9427
-27.1744
-20.1516
-14.0992
-9.99885
-8.49124
-9.83172
-13.8992
-20.2519
-28.2174
-37.0024
-45.8053
-53.9185
-60.806
-66.1515
-69.8722
-72.1011
-73.1432
-73.4133
-73.3663
-73.4279
-73.936
-75.0973
-76.9641
-79.4305
-82.2489
-85.0609
-87.4399
-88.9395
-89.1431
-87.7099
-84.4134
-79.1694
-72.0503
-63.285
-53.2437
-42.4088
-31.3345
-20.5989
-10.7527
-2.27095
4.48784
9.31128
12.1472
13.1015
12.4204
10.4593
7.64125
4.41208
1.19489
-1.64909
-3.85027
-5.24806
-5.79495
-5.54772
-4.64819
-3.29636
-1.71997
-0.14425
1.23463
2.26973
2.87542
3.03099
2.77607
2.19966
1.42443
0.588882
-0.170495
-0.734888
-1.01523
-0.959622
-0.555928
0.170337
1.16186
2.33809
3.60521
4.8662
6.02992
7.01832
7.77132
8.24919
8.43253
8.3204
7.9271
7.27829
6.40712
5.35085
4.14822
2.83781
1.45723
0.0429673
-1.36934
-2.74452
-4.04763
-5.24394
-6.29947
-7.18183
-7.86162
-8.31416
-8.52155
-8.47465
-8.17508
-7.6365
-6.88534
-5.96029
-4.91073
-3.79392
-2.67117
-1.6033
-0.645868
0.15534
0.767999
1.17571
1.3789
1.39407
1.25148
0.991492
0.660126
0.30422
-0.0331711
-0.316654
-0.521237
-0.633665
-0.652279
-0.585498
-0.449235
-0.263693
-0.0500504
0.172467
0.388718
0.588752
0.767852
0.925658
1.06466
1.18844
1.30008
1.40094
1.49019
1.565
1.62132
1.65517
1.66404
1.64812
1.61122
1.56097
1.5084
1.46682
1.45013
1.47076
1.53757
1.65393
1.81633
2.01376
2.22791
2.43443
2.60495
2.70989
2.72161
2.61771
2.38396
2.01662
1.52374
0.925288
0.251928
-0.457336
-1.15858
-1.807
-2.36111
-2.78671
-3.06001
-3.16976
-3.11794
-2.91905
-2.59812
-2.18747
-1.72282
-1.23888
-0.765193
-0.322434
0.0800606
0.445339
0.788124
1.13235
1.50715
1.94181
2.46033
3.07632
3.78912
4.58165
5.42052
6.25836
7.03828
7.69985
8.1859
8.44922
8.45838
8.20181
7.6897
6.95337
6.04213
5.01778
3.94701
2.8921
1.90019
0.991888
0.149843
-0.691177
-1.65083
-2.90379
-4.67155
-7.20228
-10.7365
-15.4573
-21.4263
-28.51
-36.3056
-44.0782
-50.7275
-54.8002
-54.5633
-48.1478
-33.7581
-9.93202
24.179
68.5516
122.1
182.594
246.719
310.291
368.602
416.888
450.833
467.068
463.591
440.044
397.814
339.931
270.786
195.689
120.322
50.1676
-10.0346
-56.7324
-87.8568
-102.942
-103.066
-90.6211
-68.9593
-41.9577
-13.5574
12.6643
33.844
48.0686
54.4821
53.2592
45.4632
32.8146
17.4075
1.41167
-13.2009
-24.8762
-32.623
-36.0729
-35.4569
-31.511
-25.3298
-18.1905
-11.3746
-6.00676
-2.93183
-2.63837
-5.23536
-10.4781
-17.8351
-26.5832
-35.9164
-45.052
-53.3234
-60.2463
-65.556
-69.2117
-71.3722
-72.3489
-72.544
-72.3837
-72.255
-72.4541
-73.151
-74.3727
-76.0064
-77.8186
-79.4877
-80.6445
-80.9173
-79.9744
-77.5634
-73.5409
-67.8928
-60.7406
-52.3362
-43.0429
-33.3061
-23.6149
-14.4593
-6.28739
0.534343
5.75178
9.24285
11.0237
11.2412
10.1524
8.09399
5.4457
2.59074
-0.12096
-2.40361
-4.05728
-4.97875
-5.16105
-4.68258
-3.68804
-2.36392
-0.911795
0.477133
1.64359
2.47563
2.91673
2.96628
2.67329
2.12457
1.42966
0.704406
0.0555856
-0.431758
-0.702872
-0.737101
-0.546931
-0.172866
0.324771
0.875756
1.41013
1.86725
2.20278
2.39269
2.43434
2.34458
2.15545
1.90831
1.64717
1.41216
1.23404
1.13016
1.10253
1.13796
1.21025
1.28407
1.31994
1.27969
1.13168
0.855208
0.443561
-0.0945157
-0.735145
-1.44127
-2.16602
-2.85718
-3.46219
-3.93335
-4.23251
-4.33498
-4.2321
-3.93222
-3.45998
-2.85399
-2.16302
-1.44123
-0.742926
-0.117398
0.395627
0.769396
0.99212
1.06738
1.01293
0.858135
0.640209
0.399858
0.176662
0.00479565
-0.0904644
-0.0950586
-0.00704943
0.16396
0.398782
0.671707
0.954252
1.2191
1.44372
1.61315
1.72166
1.77298
1.77924
1.7587
1.73273
1.72249
1.74576
1.81448
1.93317
2.09844
2.29966
2.52039
2.74057
2.93888
3.09514
3.19233
3.21803
3.16532
3.03285
2.82446
2.54817
2.21496
1.8374
1.42832
0.999782
0.562412
0.125154
-0.304513
-0.719999
-1.11476
-1.4814
-1.81078
-2.09141
-2.30925
-2.4479
-2.48934
-2.41514
-2.20802
-1.85368
-1.34275
-0.672497
0.151685
1.11528
2.19431
3.3557
4.55845
5.75546
6.89605
7.92895
8.80551
9.48286
9.92689
10.1145
10.0353
9.69199
9.10029
8.28693
7.28686
6.1389
4.87979
3.53671
2.11826
0.604742
-1.06115
-2.98079
-5.30038
-8.2023
-11.8835
-16.5179
-22.2021
-28.8869
-36.3004
-43.8755
-50.697
-55.4869
-56.6456
-52.3618
-40.7943
-20.3147
10.2142
51.1608
101.896
160.658
224.546
289.673
351.46
405.061
445.871
470.036
474.924
459.467
424.344
371.961
306.235
232.209
155.532
81.8857
16.4129
-36.7751
-74.9624
-97.021
-103.422
-96.0672
-77.9816
-52.8966
-24.7933
2.5459
25.9241
43.0147
52.5213
54.2024
48.7743
37.7116
22.9811
6.74643
-8.91776
-22.2694
-32.0749
-37.7031
-39.1343
-36.8934
-31.9218
-25.4123
-18.6299
-12.7445
-8.69373
-7.09
-8.18007
-11.855
-17.7043
-25.1026
-33.3135
-41.5953
-49.2949
-55.9187
-61.174
-64.9784
-67.4407
-68.8176
-69.4567
-69.7319
-69.9836
-70.4678
-71.3219
-72.5485
-74.0182
-75.4888
-76.6387
-77.109
-76.5491
-74.6625
-71.2459
-66.2195
-59.6435
-51.7204
-42.7813
-33.2587
-23.6475
-14.4587
-6.17151
0.81191
6.20255
9.84868
11.7449
12.0258
10.9448
8.84246
6.10716
3.13342
0.283232
-2.14604
-3.9436
-4.99546
-5.28286
-4.87019
-3.88499
-2.49326
-0.873755
0.805474
2.40563
3.82906
5.02378
5.98112
6.7277
7.31363
7.79914
8.24171
8.68551
9.15441
9.64906
10.1481
10.6129
10.9939
11.2394
11.3022
11.1468
10.7534
10.1189
9.25724
8.19554
6.97022
5.62189
4.19051
2.71139
1.2126
-0.285974
-1.77201
-3.2387
-4.68181
-6.09633
-7.47332
-8.79745
-10.0456
-11.1867
-12.1833
-12.9934
-13.5749
-13.8886
-13.9035
-13.6002
-12.9747
-12.0407
-10.8303
-9.39368
-7.7966
-6.11614
-4.43548
-2.83752
-1.39836
-0.181129
0.769066
1.42852
1.7963
1.89337
1.75965
1.44932
1.02493
0.551016
0.0879205
-0.313433
-0.615299
-0.795032
-0.845083
-0.77126
-0.589659
-0.322837
0.0041372
0.367178
0.745778
1.12445
1.49303
1.84592
2.18075
2.49663
2.79258
3.06626
3.31333
3.52737
3.70043
3.82386
3.88942
3.89028
3.82184
3.68218
3.47229
3.19575
2.85839
2.46769
2.03229
1.56166
1.06604
0.556565
0.0457067
-0.452347
-0.921335
-1.34285
-1.69661
-1.96125
-2.11544
-2.13943
-2.01675
-1.73602
-1.29243
-0.689037
0.0626208
0.942434
1.92234
2.96753
4.03824
5.09181
6.08511
6.97682
7.72977
8.31282
8.70252
8.88428
8.85298
8.61325
8.1791
7.57303
6.82461
5.96821
5.03982
4.07253
3.09023
2.09938
1.07904
-0.0295926
-1.33206
-2.98431
-5.18695
-8.16552
-12.1328
-17.2318
-23.4608
-30.5882
-38.0692
-44.9826
-50.0082
-51.4662
-47.4317
-35.9299
-15.1987
16.0078
58.1174
110.491
171.277
237.408
304.769
368.521
423.558
465.053
489.008
492.738
475.235
437.339
381.703
312.546
235.227
155.691
79.8564
13.0174
-40.664
-78.5225
-99.5721
-104.493
-95.4385
-75.6865
-49.1994
-20.1372
7.60894
30.8111
47.1884
55.5552
55.8282
48.9063
36.4469
20.5782
3.58513
-12.3889
-25.5907
-34.8328
-39.5791
-39.9433
-36.6052
-30.6663
-23.4677
-16.3958
-10.7026
-7.36047
-6.96582
-9.6999
-15.3448
-23.3474
-32.919
-43.1537
-53.1493
-62.1156
-69.4574
-74.8253
-78.1296
-79.5223
-79.3492
-78.084
-76.2522
-74.3561
-72.8095
-71.8888
-71.7054
-72.1999
-73.1574
-74.2408
-75.0375
-75.1129
-74.0663
-71.5815
-67.4683
-61.6895
-54.3717
-45.7961
-36.374
-26.6057
-17.0309
-8.1729
-0.486911
5.68497
10.1446
12.8524
13.9231
13.6058
12.2492
10.258
8.04575
5.99015
4.39557
3.46698
3.29759
3.87046
5.07301
6.72136
8.59088
10.4486
12.0835
13.3307
14.0877
14.3212
14.0643
13.4053
12.4715
11.4081
10.3587
9.4457
8.7573
8.33837
8.1885
8.26566
8.4948
8.7799
9.01764
9.11077
8.9797
8.5709
7.86133
6.85893
5.59917
4.13881
2.54762
0.899381
-0.736532
-2.30225
-3.75624
-5.07554
-6.25549
-7.3071
-8.25271
-9.12062
-9.93953
-10.7334
-11.5177
-12.2966
-13.0623
-13.7965
-14.4719
-15.0562
-15.5157
-15.8192
-15.9412
-15.8644
-15.581
-15.0928
-14.4104
-13.5518
-12.5408
-11.4048
-10.1739
-8.87914
-7.55255
-6.2263
-4.93246
-3.70251
-2.56644
-1.55143
-0.68013
0.031346
0.575417
0.954709
1.18304
1.28539
1.29669
1.25935
1.2197
1.22368
1.31218
1.51658
1.85499
2.32963
2.92572
3.61203
4.34319
5.06361
5.71278
6.23131
6.56736
6.68258
6.55697
6.19214
5.61236
4.86349
4.00956
3.12751
2.30045
1.61029
1.13023
0.917964
1.01024
1.41905
2.13003
3.10298
4.27458
5.56313
6.87484
8.11134
9.17761
9.98973
10.4818
10.6111
10.3618
9.74522
8.79913
7.58361
6.17574
4.6626
3.13339
1.67075
0.341666
-0.812163
-1.78419
-2.61258
-3.38828
-4.25955
-5.4301
-7.14716
-9.67601
-13.2577
-18.0492
-24.0483
-31.0108
-38.3709
-45.1852
-50.1165
-51.4803
-47.3648
-35.8284
-15.1617
15.8135
57.4512
109.044
168.691
233.307
298.801
360.408
413.146
452.356
474.232
476.295
457.724
419.509
364.388
296.592
221.409
144.638
71.9844
8.49257
-41.9405
-76.8994
-95.6065
-98.8895
-88.9733
-69.1326
-43.2534
-15.3616
10.8244
32.267
46.8706
53.6113
52.5294
44.6009
31.5114
15.3717
-1.58743
-17.302
-30.1101
-38.9133
-43.2518
-43.2924
-39.7412
-33.6983
-26.4785
-19.4243
-13.7346
-10.3287
-9.75888
-12.1778
-17.3584
-24.7586
-33.6187
-43.075
-52.2741
-60.4743
-67.1224
-71.8988
-74.7294
-75.766
-75.3408
-73.9025
-71.9448
-69.9351
-68.2526
-67.1427
-66.6909
-66.8186
-67.3
-67.7968
-67.9067
-67.2192
-65.3723
-62.1031
-57.2872
-50.9606
-43.3226
-34.7185
-25.6044
-16.4985
-7.92457
-0.355639
5.83641
10.4179
13.3136
14.6077
14.5261
13.4032
11.638
9.64483
7.80608
6.43183
5.73121
5.7981
6.61159
8.05024
9.91696
11.9708
13.9612
15.6601
16.8884
17.5342
17.5614
17.0073
15.9728
14.6046
13.0734
11.5518
10.1927
9.1127
8.38081
8.01404
7.97931
8.20127
8.57419
8.97644
9.2854
9.39122
9.20787
8.68057
7.78924
6.54784
5.00027
3.21355
1.26933
-0.745283
-2.7464
-4.66079
-6.43135
-8.02026
-9.40974
-10.6006
-11.6088
-12.4615
-13.1916
-13.8328
-14.4157
-14.9643
-15.4942
-16.0117
-16.5144
-16.9923
-17.4297
-17.8066
-18.1006
-18.2883
-18.3463
-18.2521
-17.9852
-17.5277
-16.8658
-15.9912
-14.9023
-13.6059
-12.1181
-10.465
-8.68187
-6.81214
-4.90484
-3.01164
-1.1835
0.532646
2.09669
3.47724
4.6525
5.61008
6.34587
6.86231
7.16651
7.26847
7.17975
6.91295
6.48181
5.90208
5.19272
4.37739
3.48562
2.55352
1.62362
0.743797
-0.0349291
-0.661458
-1.08837
-1.27593
-1.19597
-0.835059
-0.196678
0.697981
1.81066
3.08816
4.46566
5.87107
7.2299
8.47031
9.52779
10.3493
10.8963
11.1469
11.0962
10.7561
10.1532
9.3264
8.32303
7.19421
5.9893
4.74934
3.49926
2.23932
0.936427
-0.483365
-2.139
-4.19233
-6.83662
-10.2722
-14.6669
-20.1013
-26.4997
-33.5562
-40.6651
-46.8731
-50.8709
-51.0422
-45.5812
-32.6808
-10.7795
21.1609
63.3838
115.12
174.472
238.422
303.007
363.627
415.474
454.041
475.623
477.768
459.605
421.999
367.517
300.197
225.153
148.054
74.5546
9.7282
-42.4148
-79.2795
-99.8688
-104.783
-96.0466
-76.7856
-50.8134
-22.1664
5.34555
28.5258
45.0744
53.7437
54.3598
47.718
35.3781
19.3914
1.99863
-14.6608
-28.7971
-39.1487
-45.0782
-46.5809
-44.2162
-38.9765
-32.1172
-24.9726
-18.7818
-14.5453
-12.9273
-14.2099
-18.2998
-24.7818
-33.0045
-42.1865
-51.5259
-60.299
-67.9365
-74.0719
-78.5563
-81.4448
-82.9573
-83.4225
-83.215
-82.6927
-82.1439
-81.7489
-81.5595
-81.4977
-81.3715
-80.9064
-79.7859
-77.6981
-74.3823
-69.6694
-63.5122
-56.0025
-47.3712
-37.9721
-28.2506
-18.7014
-9.81922
-2.04842
4.26147
8.89004
11.7655
12.9671
12.7115
11.323
9.19447
6.74154
4.3574
2.37286
1.02629
0.446533
0.649856
1.55031
2.98131
4.72482
6.54411
8.21551
9.55566
10.441
10.8176
10.702
10.1718
9.35015
8.38548
7.4297
6.61797
6.05234
5.79113
5.84481
6.17843
6.71964
7.37074
8.02292
8.57049
8.92339
9.01655
8.81508
8.31521
7.54131
6.53963
5.37026
4.09822
2.78518
1.48269
0.227738
-0.959202
-2.07352
-3.12368
-4.12685
-5.10376
-6.07356
-7.04928
-8.03466
-9.02247
-9.99461
-10.9237
-11.7761
-12.5152
-13.1058
-13.5179
-13.7293
-13.7285
-13.5152
-13.1004
-12.5049
-11.7572
-10.8909
-9.94109
-8.94208
-7.92476
-6.91513
-5.93361
-4.99516
-4.10996
-3.28447
-2.52243
-1.82557
-1.1939
-0.625456
-0.115771
0.342859
0.761882
1.15654
1.54522
1.94806
2.38483
2.87235
3.4218
4.03644
4.71001
5.4263
6.1599
6.8781
7.54373
8.1185
8.56638
8.85668
8.96657
8.8827
8.6023
8.13344
7.49488
6.71541
5.83286
4.89258
3.94559
3.04612
2.24883
1.60555
1.16202
0.954574
1.0073
1.32984
1.91603
2.7437
3.77546
4.96065
6.23815
7.53974
8.79388
9.92951
10.8796
11.5843
11.9939
12.071
11.7923
11.1502
10.1531
8.8261
7.20953
5.35762
3.33523
1.21322
-0.937905
-3.05632
-5.09901
-7.05317
-8.94736
-10.8603
-12.924
-15.3173
-18.2462
-21.9082
-26.4379
-31.8391
-37.9062
-44.149
-49.7351
-53.4694
-53.8283
-49.0623
-37.3708
-17.1396
12.7839
52.8137
102.395
159.862
222.429
286.326
347.09
399.974
440.443
464.678
470.044
455.429
421.433
370.354
305.992
233.267
157.72
84.9463
20.0357
-32.9208
-71.1926
-93.6084
-100.574
-93.9164
-76.5816
-52.2316
-24.7925
1.99006
24.9359
41.718
51.0253
52.5941
47.1156
36.0418
21.3232
5.11465
-10.5099
-23.8034
-33.524
-39.0328
-40.3068
-37.8742
-32.6889
-25.9657
-19.0007
-13.0015
-8.94634
-7.48769
-8.90585
-13.114
-19.7074
-28.0461
-37.356
-46.8348
-55.7488
-63.5088
-69.7204
-74.2031
-76.9818
-78.2539
-78.3387
-77.6178
-76.4753
-75.2435
-74.1611
-73.3478
-72.7961
-72.3798
-71.8777
-71.0086
-69.4726
-66.9955
-63.369
-58.4847
-52.3556
-45.1238
-37.0532
-28.5074
-19.9156
-11.7303
-4.38191
1.7645
6.44506
9.52156
10.9919
10.9852
9.74385
7.59279
4.9028
2.05016
-0.621368
-2.83247
-4.39069
-5.20154
-5.26783
-4.67818
-3.58714
-2.18969
-0.693845
0.705415
1.84794
2.62371
2.98067
2.9247
2.5128
1.84077
1.02757
0.198491
-0.530686
-1.06673
-1.34797
-1.34854
-1.07794
-0.576543
0.0920751
0.850476
1.6172
2.3158
2.88224
3.27001
3.45269
3.42421
3.19693
2.79815
2.26557
1.6424
0.972624
0.296963
-0.350081
-0.941911
-1.46023
-1.89431
-2.23951
-2.49535
-2.66374
-2.74757
-2.74995
-2.67415
-2.52416
-2.30557
-2.02653
-1.69849
-1.3364
-0.958342
-0.584476
-0.235485
0.0693024
0.313825
0.486955
0.583668
0.605533
0.560461
0.461731
0.326436
0.173566
0.0219954
-0.111341
-0.212825
-0.272921
-0.286262
-0.251111
-0.168396
-0.0405506
0.129553
0.339343
0.586814
0.870274
1.18767
1.53562
1.90847
2.29751
2.69064
3.07258
3.4257
3.73128
3.97123
4.12985
4.19548
4.16185
4.02882
3.80252
3.49489
3.12256
2.70548
2.26518
1.82311
1.3991
1.01018
0.669752
0.387325
0.168616
0.0160521
-0.0704917
-0.0928372
-0.0536746
0.0441209
0.19793
0.405526
0.66489
0.973726
1.32875
1.72488
2.15435
2.60605
3.06499
3.51215
3.92465
4.27653
4.53985
4.68643
4.68994
4.52838
4.18659
3.65863
2.9496
2.07662
1.06848
-0.036042
-1.19158
-2.35118
-3.47282
-4.52736
-5.50749
-6.43723
-7.38088
-8.44967
-9.80365
-11.6452
-14.2005
-17.6855
-22.2542
-27.9304
-34.528
-41.5705
-48.2264
-53.2789
-55.1524
-52.0097
-41.9273
-23.1407
5.66569
45.0614
94.6166
152.741
216.658
282.534
345.774
401.442
444.775
471.723
479.427
466.596
433.71
383.02
318.351
244.717
167.808
93.4033
26.7846
-27.7749
-67.3969
-90.8114
-98.383
-91.9555
-74.5429
-49.9126
-22.1166
4.97218
28.0628
44.7482
53.6776
54.5911
48.2249
36.1098
20.2972
3.0521
-13.4461
-27.3617
-37.3915
-42.8688
-43.7792
-40.6947
-34.6432
-26.935
-18.9733
-12.0725
-7.30557
-5.39787
-6.67312
-11.0545
-18.1139
-27.1582
-37.3382
-47.7642
-57.6131
-66.2156
-73.114
-78.0877
-81.1466
-82.497
-82.4871
-81.5414
-80.0934
-78.5242
-77.1149
-76.0165
-75.2389
-74.6598
-74.0493
-73.1084
-71.5145
-68.9693
-65.244
-60.2158
-53.8913
-46.4154
-38.0627
-29.2137
-20.3187
-11.8517
-4.26297
2.06703
6.86524
9.99123
11.4475
11.374
10.0277
7.75119
4.93267
1.96425
-0.797891
-3.06638
-4.64545
-5.44174
-5.46266
-4.80362
-3.62644
-2.13234
-0.533194
0.975426
2.23621
3.14493
3.65704
3.78592
3.59392
3.17798
2.65214
2.12962
1.70673
1.45058
1.39196
1.52388
1.8056
2.17107
2.54038
2.83246
2.97706
2.92454
2.65219
2.16644
1.50103
0.711657
-0.132012
-0.955637
-1.68955
-2.27695
-2.67999
-2.88319
-2.89384
-2.7397
-2.46434
-2.12095
-1.76527
-1.44865
-1.21199
-1.08129
-1.06518
-1.15479
-1.32584
-1.54264
-1.76332
-1.94579
-2.05337
-2.05957
-1.95133
-1.7303
-1.41231
-1.02487
-0.603397
-0.186555
0.188556
0.490782
0.6983
0.800672
0.799365
0.706805
0.544182
0.338402
0.118649
-0.086937
-0.254055
-0.364184
-0.405539
-0.373053
-0.267576
-0.0945843
0.137269
0.417417
0.734248
1.07548
1.42809
1.77803
2.10991
2.407
2.65162
2.82612
2.91432
2.90323
2.78489
2.55791
2.22854
1.81101
1.32698
0.804244
0.274534
-0.229137
-0.675465
-1.0378
-1.29667
-1.44164
-1.47212
-1.39705
-1.23343
-1.00384
-0.733208
-0.445353
-0.159619
0.111779
0.365374
0.606798
0.849799
1.11408
1.4223
1.79662
2.25525
2.80952
3.46157
4.20316
5.01537
5.86948
6.72861
7.55026
8.28924
8.90107
9.34533
9.58899
9.60919
9.39538
8.95053
8.29106
7.4455
6.45172
5.3527
4.19101
3.00209
1.80655
0.601677
-0.647098
-2.0138
-3.61676
-5.61792
-8.21337
-11.6113
-15.9941
-21.4642
-27.9733
-35.2438
-42.6918
-49.3694
-53.9464
-54.7497
-49.878
-37.3917
-15.572
16.7814
60.0538
113.57
175.45
242.61
310.922
375.536
431.341
473.495
497.978
502.078
484.755
446.811
390.869
321.129
242.948
162.293
85.1273
16.8153
-38.3937
-77.7362
-100.128
-106.16
-97.9169
-78.6373
-52.2752
-23.0161
5.19272
29.0439
46.1621
55.2631
56.1717
49.7109
37.4862
21.6016
4.34741
-12.1005
-25.9347
-35.8979
-41.3783
-42.4156
-39.6259
-34.0641
-27.0466
-19.9594
-14.0792
-10.4254
-9.65978
-12.0403
-17.4295
-25.3495
-35.0729
-45.7332
-56.441
-66.3887
-74.9346
-81.657
-86.3753
-89.1403
-90.1963
-89.9255
-88.7802
-87.2156
-85.6285
-84.3102
-83.4168
-82.959
-82.8097
-82.7285
-82.3978
-81.4659
-79.5945
-76.5026
-72.005
-66.0403
-58.6858
-50.1572
-40.7938
-31.0291
-21.3513
-12.2568
-4.20295
2.43629
7.40456
10.5854
12.0089
11.8436
10.3734
7.9636
5.02087
1.95031
-0.883847
-3.19054
-4.7737
-5.542
-5.50623
-4.76581
-3.48658
-1.87362
-0.142322
1.5083
2.91742
3.97692
4.63782
4.90838
4.84536
4.53989
4.10065
3.63667
3.24217
2.98512
2.90073
2.99014
3.22389
3.54927
3.89998
4.20675
4.40714
4.4536
4.3186
3.99669
3.50342
2.87168
2.14613
1.37661
0.611645
-0.107427
-0.750688
-1.30208
-1.75975
-2.13452
-2.44669
-2.7219
-2.98645
-3.26282
-3.56593
-3.90051
-4.25983
-4.62606
-4.972
-5.26413
-5.46669
-5.54614
-5.47572
-5.23941
-4.83472
-4.27409
-3.58455
-2.80557
-1.98552
-1.17691
-0.431176
0.206481
0.701511
1.0332
1.19624
1.20062
1.06973
0.837231
0.542889
0.228057
-0.0686517
-0.314977
-0.487506
-0.572795
-0.56709
-0.474803
-0.306104
-0.0740916
0.207939
0.528662
0.879973
1.25717
1.65811
2.08151
2.52494
2.98273
3.44443
3.89413
4.3107
4.66924
4.94323
5.10737
5.14049
5.02828
4.7654
4.35671
3.81745
3.17244
2.4543
1.70098
0.952892
0.249861
-0.371637
-0.880893
-1.25476
-1.47879
-1.54764
-1.46491
-1.24249
-0.8994
-0.460635
0.0442793
0.582613
1.11975
1.62045
2.05005
2.37577
2.56804
2.60195
2.4589
2.12822
1.60884
0.91067
0.0556077
-0.922123
-1.97647
-3.05104
-4.0816
-4.99955
-5.73617
-6.22729
-6.41816
-6.26784
-5.75294
-4.87021
-3.63772
-2.09464
-0.299417
1.67324
3.73667
5.79731
7.76035
9.53549
11.0426
12.2166
13.0119
13.4047
13.3949
13.0057
12.2816
11.2843
10.0868
8.76555
7.38989
6.01049
4.64613
3.27112
1.80515
0.10864
-2.013
-4.79246
-8.46792
-13.233
-19.1701
-26.1715
-33.8579
-41.5073
-48.0132
-51.8908
-51.3479
-44.4308
-29.2425
-4.21684
31.5832
78.1876
134.509
198.251
265.958
333.235
395.115
446.539
482.898
500.567
497.352
472.795
428.293
366.998
293.527
213.496
132.949
57.7409
-7.0387
-57.5458
-91.5056
-108.349
-109.158
-96.4295
-73.7027
-45.0977
-14.8253
13.2725
36.1006
51.5693
58.7145
57.6761
49.5516
36.1526
19.7031
2.52102
-13.2761
-26.0103
-34.6016
-38.6362
-38.3448
-34.5033
-28.2757
-21.0254
-14.1214
-8.76336
-5.84648
-5.87847
-8.95355
-14.7812
-22.7603
-32.0849
-41.8646
-51.2437
-59.5036
-66.1372
-70.8888
-73.7585
-74.9722
-74.927
-74.1181
-73.0608
-72.2166
-71.9326
-72.3995
-73.6335
-75.4805
-77.6414
-79.7123
-81.2366
-81.7597
-80.8823
-78.3056
-73.8645
-67.5457
-59.4892
-49.9748
-39.3945
-28.2155
-16.9373
-6.04817
4.01482
12.8985
20.3559
26.2565
30.585
33.429
34.9577
35.3959
34.9952
34.0071
32.6592
31.1392
29.5845
28.0808
26.6657
25.3387
24.0729
22.8287
21.5661
20.2546
18.8797
17.4458
15.9749
14.5029
13.0737
11.7316
10.5151
9.45081
8.5501
7.80728
7.20066
6.69542
6.24803
5.81154
5.34086
4.79722
4.15144
3.38535
2.49151
1.47123
0.331567
-0.918184
-2.26978
-3.71846
-5.26401
-6.91041
-8.66398
-10.5303
-12.5106
-12.5106
-12.5106
-12.5106
-12.5106
-12.5106
-12.5106
-12.5106
-12.5106
-12.5106
-12.5106
-12.5106
-12.5106
-12.5106
-12.5106
-12.5106
-12.5106
-12.5106
-12.5106
-12.5106
-12.5106
