175
519
851
1213
1631
1978
2328
2712
3067
3408
3739
4127
4490
4824
5181
5533
5858
6162
6499
6859
7182
7497
7850
8198
8519
8832
9177
9511
9854
10171
10493
10830
11172
11475
11792
12126
12442
12737
13089
13436
13735
14101
14472
14810
15204
15614
15978
16319
16709
17085
17427
17788
18176
18520
18865
19218
19569
19884
20204
20540
20876
21176
21489
21834
22170
22520
22880
23220
23543
23874
24238
24567
24918
25287
25661
26014
26387
26746
27082
27396
27722
28037
28356
28666
29000
29366
29674
30004
30355
30696
31032
31383
31780
32110
32452
32799
33146
33473
33824
34174
34523
34829
35199
35544
35868
36235
36622
36926
37264
37635
38023
38335
38703
39098
39436
39774
40149
40515
40835
41157
41527
41856
42148
42465
42810
43135
43454
43802
44157
44478
44823
45191
45525
45874
46258
46609
46925
47237
47566
47878
48193
48536
48862
49192
49539
49893
50225
50547
50928
51274
51613
51947
52316
52644
52954
53286
53613
53915
54225
54558
54887
55197
55528
55939
56293
56614
56985
57343
57639
57983
58393
58727
59080
59443
59795
60104
60430
60779
61126
61441
61787
62144
62477
62781
63135
63527
63859
64201
64568
64926
65240
65550
65876
66191
66478
66795
67152
67466
67801
68233
68603
68976
69357
69751
70096
70484
70854
71207
71581
71951
72320
72671
73018
73393
73738
74091
74448
74811
75134
75482
75846
76207
76528
76880
77247
77602
77912
78234
78565
78876
79193
79519
79830
80146
80487
80844
81198
81530
81866
82186
82490
82795
83112
83409
83708
84035
84336
84614
84926
85226
85534
85876
86247
86581
86971
87333
87656
88007
88345
88639
88938
89258
89627
89961
90306
90701
91113
91479
91837
92217
92572
92908
93261
93646
93986
94292
94653
95024
95333
95665
96012
96347
96640
96981
97350
97680
98040
98425
98729
99051
99386
99714
100022
100329
100677
100989
101339
101744
102087
102419
102776
103169
103501
103841
104199
104546
104851
105202
105587
105970
106307
106651
106989
107302
107619
107927
108263
108590
108922
109285
109667
109992
110356
110743
111113
111446
111801
112187
112538
112861
113201
113556
113884
114204
114556
114879
115211
115533
115874
116199
116528
116891
117263
117588
117928
118323
118638
118967
119309
119662
119984
120315
120661
121020
121336
121685
122053
122360
122668
123003
123367
123675
123997
124380
124768
125084
125425
125766
126098
126399
126734
127130
127472
127789
128136
128503
128828
129145
129493
129835
130129
130460
130794
131113
131416
131752
132084
132408
132726
133045
133431
133779
134106
134504
134874
135191
135531
135899
136228
136529
136856
137212
137541
137842
138203
138585
138915
139262
139674
140006
140318
140673
141070
141403
141696
142049
142417
142775
143113
143483
143882
144246
144557
144916
145273
145591
145889
146225
146582
146885
147208
147573
147939
148279
148652
149047
149368
149682
150004
150333
150639
150955
151289
151632
151939
152263
152585
152922
153226
153565
153949
154297
154627
154966
155310
155608
155921
156237
156603
156912
157216
157555
157865
158149
158450
158802
159152
159475
159878
160271
160589
160929
161299
161620
161935
162253
162602
162918
163219
163525
163859
164169
164482
164811
165196
165540
165855
166177
166509
166826
167130
167436
167727
168014
168322
168626
168935
169237
169679
170096
170462
170828
171213
171581
171939
172316
172690
173068
173412
173787
174132
174453
174790
175175
175539
175855
176225
176605
176931
177241
177592
177957
178291
178606
178959
179330
179721
180033
180356
180702
181039
181344
181646
182007
182351
182670
183006
183392
183746
184042
184385
184773
185097
185414
185750
186083
186389
186702
187031
187363
187662
187989
188337
188687
189008
189361
189764
190123
190473
190837
191169
191485
191820
192186
192507
192835
193165
193536
193866
194229
194585
194917
195242
195580
195914
196241
196556
196874
197221
197536
197849
198198
198544
198902
199215
199558
199937
200257
200579
200909
201225
201541
201875
202234
202570
202911
203300
203639
203957
204295
204641
204976
205288
205648
206000
206297
206627
206973
207280
207589
207920
208293
208633
208928
209312
209690
210006
210336
210688
211033
211347
211668
212004
212324
212625
212923
213269
213585
213884
214202
214552
214871
215171
215483
215821
216122
216419
216723
217103
217415
217715
218041
218386
218704
218991
219321
219684
220008
220312
220644
220990
221291
221591
221932
222307
222611
222913
223244
223627
223965
224301
224696
225045
225351
225696
226039
226368
226677
227014
227372
227691
227985
228304
228628
228924
229233
229566
229895
230198
230499
230804
231084
231411
231741
232041
232346
232683
233000
233301
233636
233986
234314
234605
234947
235315
235633
235939
236306
236675
237004
237301
237657
238014
238323
238633
238985
239323
239630
239954
240311
240631
240935
241263
241622
241947
242238
242562
242912
243237
243542
243876
244216
244515
244810
245127
245484
245785
246077
246396
246719
247018
247306
247629
247954
248260
248546
248866
249222
249530
249837
250179
250554
250864
251200
251552
251893
252199
252525
252880
253240
253544
253912
254305
254640
254948
255284
255639
255953
256275
256692
257078
257415
257744
258122
258442
258735
259049
259368
259692
260006
260336
260665
260990
261338
261743
262093
262417
262755
263056
263368
263685
264005
264307
264605
264916
265258
265565
265874
266188
266506
266789
267083
267404
267754
268068
268417
268856
269217
269556
269925
270278
270595
270941
271305
271637
271931
272288
272677
273029
273336
273684
274053
274388
274709
275061
275432
275748
276068
276416
276764
277074
277412
277772
278114
278429
278772
279108
279424
279705
280007
280335
280634
280913
281225
281560
281866
282154
282471
282818
283122
283420
283750
284139
284445
284772
285107
285440
285732
286043
286373
286690
286980
287293
287636
287947
288258
288576
288907
289232
289536
289911
290305
290650
291000
291351
291708
292024
292348
292714
293071
293389
293740
294134
294487
294794
295155
295508
295849
296145
296462
296814
297146
297435
297759
298123
298464
298778
299128
299468
299793
300089
300412
300757
301063
301379
301722
302066
302380
302693
303103
303482
303807
304138
304487
304809
305111
305453
305812
306172
306470
306793
307138
307492
307801
308126
308460
308812
309109
309420
309776
310091
310388
310712
311045
311369
311671
311971
312282
312598
312889
313188
313526
313880
314185
314556
315005
315362
315752
316135
316512
316848
317207
317580
317918
318248
318598
318947
319261
319582
319957
320307
320611
320968
321356
321695
322005
322346
322748
323074
323400
323766
324133
324439
324737
325078
325425
325728
326027
326320
326641
326927
327219
327552
327941
328259
328635
329052
329422
329743
330076
330472
330788
331090
331436
331756
332064
332394
332742
333080
333387
333708
334036
334369
334672
335004
335405
335730
336046
336376
336712
337032
337339
337689
338063
338373
338680
339037
339391
339720
340018
340394
340786
341101
341413
341732
342055
342354
342670
343027
343383
343695
344045
344473
344834
345158
345544
345912
346233
346555
346886
347229
347544
347873
348220
348575
348890
349215
349597
349992
350304
350633
350980
351292
351572
351894
352220
352537
352830
353149
353484
353825
354114
354442
354809
355161
355459
355803
356153
356450
356743
357049
357369
357675
357954
358251
358564
358856
359147
359445
359775
360087
360393
360710
361045
361380
361693
362030
362451
362794
363131
363492
363822
364112
364436
364804
365119
365421
365743
366084
366405
366710
367030
367367
367696
367989
368303
368630
368975
369287
369603
369928
370249
370556
370874
371197
371537
371836
372202
372534
372878
373187
373522
373838
374195
374493
374816
375164
375565
375896
376255
376634
376981
377285
377593
377937
378274
378588
378895
379221
379519
379814
380123
380438
380749
381059
381372
381698
382027
382328
382635
382969
383269
383570
383877
384190
384491
384778
385065
385388
385672
385995
386325
386679
387030
387399
387847
388208
388524
388849
389138
389458
389770
390083
390406
390703
391054
391501
391881
392304
392700
393062
393445
393799
394126
394456
394776
395081
395372
395708
396034
396360
396739
397134
397462
397803
398209
398540
398870
399212
399533
399852
400181
400514
400848
401157
401512
401855
402172
402495
402850
403242
403562
403915
404243
404569
404873
405229
405626
405990
406320
406667
407024
407351
407669
407998
408320
408634
408951
409301
409650
409963
410291
410616
410956
411242
411553
411862
412196
412499
412815
413147
413477
413795
414121
414450
414772
415066
415400
415742
416058
416346
416646
416978
417279
417572
417895
418180
418461
418754
419039
419354
419629
419915
420234
420532
420833
421136
421492
421811
422126
422452
422762
423089
423387
423701
424056
424365
424694
425031
425400
425711
426022
426348
426642
426972
427345
427666
428012
428425
428790
429119
429473
429850
430168
430490
430795
431112
431410
431705
432032
432357
432681
432990
433313
433651
433952
434258
434581
434891
435174
435483
435858
436195
436511
436871
437237
437551
437855
438189
438529
438824
439119
439446
439809
440124
440433
440815
441231
441567
441904
442229
442553
442865
443149
443488
443836
444171
444487
444857
445244
445592
445912
446250
446589
446885
447181
447483
447770
448055
448318
448628
448947
449240
449573
449983
450350
450691
451094
451493
451830
452201
452566
452879
453181
453493
453814
454110
454408
454726
455042
455345
455638
455931
456275
456566
456857
457156
457469
457791
458094
458407
458743
459077
459360
459648
459953
460243
460529
460822
461125
461419
461720
462045
462350
462641
462949
463258
463585
463878
464174
464476
464756
465032
465313
465592
465863
466128
466401
466674
466939
467199
467462
467726
467996
468272
468523
468788
469074
469331
469599
469864
470140
470421
470714
470976
471274
471626
472015
472413
472801
473169
473510
473851
474223
474565
474878
475180
475492
475817
476150
476454
476780
477126
477448
477752
478055
478390
478692
478975
479264
479565
479860
480143
480444
480753
481048
481351
481665
481988
482296
482671
483079
483421
483761
484134
484518
484835
485149
485475
485800
486132
486426
486737
487068
487399
487713
488058
488433
488768
489084
489387
489711
489999
490308
490647
490967
491279
491609
491972
492320
492628
492950
493292
493601
493910
494227
494554
494873
495213
495632
496010
496383
496740
497079
497408
497721
498019
498316
498616
498927
499227
499519
499848
500187
500494
500801
501119
501455
501760
502052
502354
502672
502948
503233
503526
503831
504130
504418
504722
505065
505359
505656
505971
506292
506579
506887
507202
507525
507814
508138
508451
508763
509106
509563
509926
510325
510699
511076
511466
511853
512208
512554
512932
513309
513649
514025
514394
514727
515040
515362
515670
515944
516242
516561
516860
517148
517442
517742
518032
518300
518584
518859
519139
519425
519714
519997
520295
520627
520924
521236
521598
521999
522314
522655
523014
523355
523659
523972
524324
524697
525076
525393
525718
526126
526508
526851
527189
527530
527886
528193
528496
528810
529159
529499
529821
530164
530600
530972
531336
531694
532044
532370
532678
532985
533307
533607
533930
534260
534637
534993
535399
535802
536173
536583
536965
537309
537685
538035
538384
538702
539013
539313
539612
539942
540300
540620
540978
541308
541608
541909
542230
542595
542900
543200
543563
543918
544261
544678
545089
545437
545761
546114
546424
546721
547045
547331
547633
547958
548285
548612
548914
549228
549555
549877
550193
550525
550830
551135
551417
551705
551989
552284
552572
552903
553245
553560
553881
554308
554711
555069
555453
555836
556186
556569
556942
557303
557696
558110
558472
558874
559272
559625
560021
560397
560756
561130
561508
561853
562182
562514
562824
563126
563427
563744
564067
564363
564662
564967
565276
565586
565877
566159
566448
566730
567016
567309
567627
567928
568235
568552
568895
569242
569554
569884
570238
570670
571022
571331
571663
571981
572297
572618
572912
573227
573564
573887
574211
574508
574842
575178
575492
575815
576127
576447
576783
577082
577360
577667
577963
578254
578533
578832
579140
579455
579759
580073
580530
580955
581360
581732
582125
582504
582869
583247
583610
583957
584332
584714
585072
585452
585816
586162
586495
586839
587159
587486
587920
588285
588713
589087
589478
589865
590262
590659
591017
591340
591646
591917
592191
592460
592722
592975
593231
593476
593734
593999
594252
594521
594808
595100
595374
595649
595946
596253
596557
596842
597133
597454
597777
598091
598396
598717
599201
599559
599962
600410
600817
601198
601610
601984
602345
602752
603134
603486
603884
604314
604693
605128
605522
605906
606311
606680
607075
607462
607807
608175
608544
608903
609255
609646
610075
610490
610873
611272
611679
612025
612360
612696
613112
613508
613920
614301
614691
615052
615427
615791
616126
616421
616739
617090
617376
617674
617987
618297
618588
618891
619194
619492
619777
620055
620353
620658
620963
621240
621527
621819
622117
622415
622700
623005
623313
623622
623917
624215
624502
624793
625092
625406
625694
625992
626301
626612
626924
627213
627522
627812
628128
628432
628708
629012
629318
629637
629923
630219
630535
630870
631164
631456
631774
632109
632447
632779
633233
633637
634024
634435
634799
635189
635583
635950
636313
636679
637030
637419
637801
638157
638554
638910
639256
639629
640013
640364
640771
641134
641514
641891
642236
642599
642963
643304
643614
643918
644216
644519
644792
645095
645389
645678
645969
646250
646535
646831
647123
647408
647675
647941
648212
648485
648754
649056
649359
649649
649956
